#Digilent WaveForms Oscilloscope Acquisition
#Device Name: Discovery2
#Serial Number: SN:210321A18883
#Date Time: 2017-10-05 00:25:05.644
#Trigger:Source: Channel 1Type: EdgeCondition: RisingLevel: 0 VHyst.: AutoHoldOff: 0 s
#Channel 2: Range: 100 mV/div Offset: 100 mV

Time (s),Channel 2 (V)
-5,-0.051966628861513001
-4.9987500000000002,-0.059120377592620905
-4.9974999999999996,-0.064911507517805347
-4.9962499999999999,-0.068999363935579427
-4.9950000000000001,-0.071043292144467404
-4.9937500000000004,-0.072405910950392088
-4.9924999999999997,-0.073087220353355367
-4.99125,-0.073087220353355367
-4.9900000000000002,-0.073087220353355367
-4.9887499999999996,-0.073087220353355214
-4.9874999999999998,-0.07274656565187404
-4.9862500000000001,-0.072405910950392713
-4.9850000000000003,-0.072065256248911538
-4.9837499999999997,-0.071724601547429129
-4.9824999999999999,-0.069680673338542082
-4.9812500000000002,-0.066614781025210124
-4.9800000000000004,-0.065252162219285439
-4.9787499999999998,-0.066955435726691465
-4.9775,-0.071383946845948731
-4.9762500000000003,-0.077515731472612648
-4.9749999999999996,-0.086032099009649879
-4.9737499999999999,-0.094889121248160402
-4.9725000000000001,-0.10238352468074963
-4.9712500000000004,-0.10885596400889191
-4.9699999999999998,-0.11362512982963346
-4.96875,-0.11600971274000277
-4.9675000000000002,-0.11600971274000277
-4.9662499999999996,-0.11362512982963145
-4.9649999999999999,-0.1091966187103762
-4.9637500000000001,-0.10170221527778696
-4.9625000000000004,-0.092504538337795275
-4.9612499999999997,-0.081944242591869915
-4.96,-0.073087220353355367
-4.9587500000000002,-0.067296090428172778
-4.9574999999999996,-0.063889543413359354
-4.9562499999999998,-0.063548888711878165
-4.9550000000000001,-0.063548888711878165
-4.9537500000000003,-0.062867579308915816
-4.9524999999999997,-0.060823651100026466
-4.9512499999999999,-0.058439068189658244
-4.9500000000000002,-0.054351211771882305
-4.9487500000000004,-0.047878772443740003
-4.9474999999999998,-0.04106567841411049
-4.94625,-0.03425258438448392
-4.9450000000000003,-0.026758180951894694
-4.9437499999999996,-0.019604432220783855
-4.9424999999999999,-0.013131992892641553
-4.9412500000000001,-0.008362827071902959
-4.9400000000000004,-0.0049562800570912228
-4.9387499999999998,-0.0035936612511643512
-4.9375,-0.0029123518482016969
-4.9362500000000002,-0.0032530065496830241
-4.9349999999999996,-0.0052969347585728596
-4.9337499999999999,-0.0093847911763469405
-4.9325000000000001,-0.014835266400048203
-4.9312500000000004,-0.02130770572819049
-4.9299999999999997,-0.028120799757820003
-4.92875,-0.034933893787446574
-4.9275000000000002,-0.042087642518554479
-4.9262499999999996,-0.049582045951146958
-4.9249999999999998,-0.056735794682251602
-4.9237500000000001,-0.062186269905952857
-4.9225000000000003,-0.066614781025208111
-4.9212499999999997,-0.070361982741505819
-4.9199999999999999,-0.07274656565187404
-4.9187500000000002,-0.076153112666687325
-4.9175000000000004,-0.080922278487423754
-4.9162499999999998,-0.085691444308164527
-4.915,-0.090119955427421794
-4.9137500000000003,-0.093867157143716407
-4.9124999999999996,-0.097273704158530774
-4.9112499999999999,-0.099658287068898996
-4.9100000000000001,-0.10033959647186165
-4.9087500000000004,-0.099658287068899301
-4.9074999999999998,-0.097955013561492346
-4.90625,-0.097614358860011019
-4.9050000000000002,-0.098636322964455014
-4.9037499999999996,-0.10033959647186243
-4.9024999999999999,-0.1020428699792683
-4.9012500000000001,-0.10374614348667494
-4.9000000000000004,-0.10510876229259962
-4.8987499999999997,-0.10613072639704424
-4.8975,-0.10647138109852557
-4.8962500000000002,-0.10340548878519361
-4.8949999999999996,-0.097273704158524738
-4.8937499999999998,-0.086372753711127181
-4.8925000000000001,-0.07274656565187404
-4.8912500000000003,-0.057417104085221236
-4.8899999999999997,-0.042087642518548594
-4.8887499999999999,-0.029142763862263998
-4.8875000000000002,-0.019945086922268124
-4.8862500000000004,-0.014835266400050527
-4.8849999999999998,-0.013813302295604207
-4.88375,-0.016538539907454838
-4.8825000000000003,-0.023010979235600082
-4.8812499999999996,-0.032208656175600141
-4.8799999999999999,-0.041406333115591817
-4.8787500000000001,-0.048900736548181049
-4.8775000000000004,-0.053669902368917471
-4.8762499999999998,-0.056054485279288947
-4.875,-0.056054485279288947
-4.8737500000000002,-0.052307283562994335
-4.8724999999999996,-0.045153534831882877
-4.8712499999999999,-0.037318476697815878
-4.8700000000000001,-0.029483418563745326
-4.8687500000000004,-0.020967051026715977
-4.8674999999999997,-0.012450683489678899
-4.86625,-0.0063188988630149823
-4.8650000000000002,-0.0029123518482016969
-4.8637499999999996,-0.0012090783407945965
-4.8624999999999998,-0.00018711423635106583
-4.8612500000000001,0.00049419516661158847
-4.8600000000000003,0.00049419516661158847
-4.8587499999999997,-0.00052776893783425195
-4.8574999999999999,-0.0046156253556083465
-4.8562500000000002,-0.012110028788197572
-4.8550000000000004,-0.022670324534113953
-4.8537499999999998,-0.03425258438448392
-4.8525,-0.047538117742255734
-4.8512500000000003,-0.062526924607434198
-4.8499999999999996,-0.077856386174100331
-4.8487499999999999,-0.091823228934828444
-4.8475000000000001,-0.1020428699792683
-4.8462500000000004,-0.10783399990444824
-4.8449999999999998,-0.10953727341185752
-4.84375,-0.10783399990445088
-4.8425000000000002,-0.10408679818815626
-4.8412499999999996,-0.098976977665933552
-4.8399999999999999,-0.092845193039272425
-4.8387500000000001,-0.085691444308164527
-4.8375000000000004,-0.075812457965210495
-4.8362499999999997,-0.064570852816322161
-4.835,-0.052647938264475662
-4.8337500000000002,-0.043450261324479794
-4.8324999999999996,-0.037999786100777602
-4.8312499999999998,-0.035955857891890569
-4.8300000000000001,-0.036637167294853223
-4.8287500000000003,-0.038681095503740263
-4.8274999999999997,-0.041406333115592747
-4.8262499999999999,-0.043450261324479794
-4.8250000000000002,-0.045153534831886437
-4.8237500000000004,-0.046175498936329953
-4.8224999999999998,-0.046175498936330418
-4.82125,-0.045153534831886437
-4.8200000000000003,-0.042428297220035806
-4.8187499999999996,-0.038340440802257854
-4.8174999999999999,-0.033911929683002592
-4.8162500000000001,-0.028802109160782671
-4.8150000000000004,-0.024373598041527403
-4.8137499999999998,-0.020967051026712105
-4.8125,-0.017901158713380147
-4.8112500000000002,-0.016879194608936166
-4.8099999999999996,-0.017560504011899594
-4.8087499999999999,-0.019263777519305469
-4.8075000000000001,-0.020285741623749451
-4.8062500000000004,-0.019263777519305934
-4.8049999999999997,-0.015516575803010857
-4.80375,-0.010066100579309595
-4.8025000000000002,-0.0029123518482016969
-4.8012499999999996,0.0042413968829089896
-4.7999999999999998,0.010373181509570117
-4.7987500000000001,0.014461037927346057
-4.7975000000000003,0.016845620837714265
-4.7962499999999997,0.016504966136232625
-4.7949999999999999,0.013439073822902076
-4.7937500000000002,0.0096918721066074492
-4.7925000000000004,0.0052633609873521964
-4.7912499999999998,-0.00018711423635106583
-4.79,-0.005637589460052328
-4.7887500000000003,-0.010406755280790922
-4.7874999999999996,-0.013813302295604827
-4.7862499999999999,-0.01517592110152953
-4.7850000000000001,-0.014153956997085534
-4.7837500000000004,-0.011088064683754985
-4.7824999999999998,-0.0073408629674589637
-4.78125,-0.0042749706541270194
-4.7800000000000002,-0.0032530065496830241
-4.7787499999999996,-0.0052969347585731692
-4.7774999999999999,-0.010066100579309595
-4.7762500000000001,-0.016879194608936166
-4.7750000000000004,-0.024714252743003155
-4.7737499999999997,-0.032889965578558611
-4.7725,-0.040725023712629163
-4.7712500000000002,-0.048219427145218388
-4.7699999999999996,-0.056054485279292819
-4.7687499999999998,-0.064570852816322161
-4.7675000000000001,-0.073768529756318035
-4.7662500000000003,-0.085010134905196766
-4.7649999999999997,-0.096592394755571381
-4.7637499999999999,-0.10613072639704424
-4.7625000000000002,-0.11192185632222681
-4.7612500000000004,-0.112262511023708
-4.7599999999999998,-0.10783399990445088
-4.75875,-0.099317632367417669
-4.7575000000000003,-0.087394717815571163
-4.7562499999999996,-0.073087220353349164
-4.7549999999999999,-0.059461032294102233
-4.7537500000000001,-0.048900736548181049
-4.7525000000000004,-0.042768951921519922
-4.7512499999999998,-0.040043714309666509
-4.75,-0.03902175020522252
-4.7487500000000002,-0.038681095503741193
-4.7474999999999996,-0.038340440802259866
-4.7462499999999999,-0.038340440802259866
-4.7450000000000001,-0.039703059608185175
-4.7437500000000004,-0.040384369011147524
-4.7424999999999997,-0.03902175020522252
-4.74125,-0.033571274981521265
-4.7400000000000002,-0.023351633937081409
-4.7387499999999996,-0.0093847911763398142
-4.7374999999999998,0.0062853250917941639
-4.7362500000000001,0.021955441359935282
-4.7350000000000003,0.036603593523625744
-4.7337499999999997,0.049207817478444653
-4.7324999999999999,0.056020911508068122
-4.7312500000000002,0.056020911508068122
-4.7300000000000004,0.050570436284369365
-4.7287499999999998,0.040691449941408359
-4.7275,0.028427880688080526
-4.7262500000000003,0.01650496613623402
-4.7249999999999996,0.0052633609873458448
-4.7237499999999999,-0.0042749706541270194
-4.7225000000000001,-0.011428719385234917
-4.7212500000000004,-0.016538539907452514
-4.7199999999999998,-0.018923122817824142
-4.71875,-0.017901158713380147
-4.7175000000000002,-0.01347264759412288
-4.7162499999999996,-0.0056375894600478359
-4.7149999999999999,0.004241396882906201
-4.7137500000000001,0.014801692628827384
-4.7125000000000004,0.025702643076224951
-4.7112499999999997,0.035922284120669751
-4.71,0.044779306359184284
-4.7087500000000002,0.051933055090292196
-4.7074999999999996,0.057042875612513512
-4.7062499999999998,0.060108767925844075
-4.7050000000000001,0.062152696134732038
-4.7037500000000003,0.062493350836213227
-4.7024999999999997,0.062493350836213227
-4.7012499999999999,0.062152696134732038
-4.7000000000000002,0.060108767925844075
-4.6987500000000004,0.055339602105107633
-4.6974999999999998,0.046141925165109593
-4.69625,0.033537701210300447
-4.6950000000000003,0.01650496613623402
-4.6937499999999996,-0.0042749706541375535
-4.6924999999999999,-0.027439490354857349
-4.6912500000000001,-0.051285319458550346
-4.6900000000000004,-0.074449839159270156
-4.6887499999999998,-0.095229775949641729
-4.6875,-0.11260316572518948
-4.6862500000000002,-0.1258886990829613
-4.6849999999999996,-0.13644899482888603
-4.6837499999999999,-0.14428405296295302
-4.6825000000000001,-0.15007518288813562
-4.6812500000000004,-0.15484434870887204
-4.6799999999999997,-0.15961351452961281
-4.67875,-0.16574529915627673
-4.6775000000000002,-0.17289904788738464
-4.6762499999999996,-0.18107476072294004
-4.6749999999999998,-0.18890981885700706
-4.6737500000000001,-0.19436029408070832
-4.6725000000000003,-0.19640422228959539
-4.6712499999999997,-0.1950416034836685
-4.6699999999999999,-0.18959112825996971
-4.6687500000000002,-0.18107476072293649
-4.6675000000000004,-0.17187708378294483
-4.6662499999999998,-0.16199809743998211
-4.665,-0.15177845639554227
-4.6637500000000003,-0.14053685124665841
-4.6624999999999996,-0.12827328199326538
-4.6612499999999999,0.015142347330308711
-4.6600000000000001,0.017867584942159342
-4.6587500000000004,0.020592822554008735
-4.6574999999999998,0.021955441359935282
-4.65625,0.022296096061416609
-4.6550000000000002,0.020933477255491301
-4.6537499999999996,0.016504966136230148
-4.6524999999999999,0.0079885985992008135
-4.6512500000000001,-0.0049562800570896737
-4.6500000000000004,-0.020285741623742477
-4.6487499999999997,-0.036296512593371896
-4.6475,-0.053329247667438316
-4.6462500000000002,-0.071724601547430059
-4.6449999999999996,-0.092845193039283264
-4.6437499999999998,-0.11669102214296542
-4.6425000000000001,-0.14292143415702771
-4.6412500000000003,-0.16915184617107809
-4.6399999999999997,-0.19470094878219985
-4.6387499999999999,-0.21718415907995733
-4.6375000000000002,-0.23523885825846774
-4.6362500000000004,-0.24852439161623349
-4.6349999999999998,-0.25704075915327274
-4.63375,-0.26112861557104872
-4.6325000000000003,-0.26146927027253003
-4.6312499999999996,-0.25874403266067691
-4.6299999999999999,-0.25329355743697812
-4.6287500000000001,-0.24545849930290758
-4.6275000000000004,-0.23523885825847238
-4.6262499999999998,-0.22365659840810256
-4.625,-0.21173368385625607
-4.6237500000000002,-0.19947011460292824
-4.6224999999999996,-0.18516261714070409
-4.6212499999999999,-0.16676726326072072
-4.6200000000000001,-0.14530601706739701
-4.6187500000000004,-0.12043822385927135
-4.6174999999999997,-0.093867157143716407
-4.61625,-0.067636745129654119
-4.6150000000000002,-0.044812880130405103
-4.6137499999999996,-0.0274394903548527
-4.6124999999999998,-0.017219849310417493
-4.6112500000000001,-0.013813302295604207
-4.6100000000000003,-0.015857230504491254
-4.6087499999999997,-0.020626396325232946
-4.6074999999999999,-0.025395562145969386
-4.6062500000000002,-0.02846145445930133
-4.6050000000000004,-0.02914276386226369
-4.6037499999999998,-0.027098835653376022
-4.6025,-0.023692288638562736
-4.6012500000000003,-0.019263777519305469
-4.5999999999999996,-0.014494611698565312
-4.5987499999999999,-0.01108806468375359
-4.5975000000000001,-0.008362827071902959
-4.5962500000000004,-0.0059782441615347393
-4.5949999999999998,-0.0066595535644963094
-4.59375,-0.011428719385234917
-4.5925000000000002,-0.020285741623749451
-4.5912499999999996,-0.031868001474119882
-4.5899999999999999,-0.043450261324479794
-4.5887500000000001,-0.052307283562994335
-4.5875000000000004,-0.057076449383730757
-4.5862499999999997,-0.056735794682251602
-4.585,-0.052647938264475662
-4.5837500000000002,-0.046175498936330418
-4.5824999999999996,-0.037659131399292251
-4.5812499999999998,-0.026758180951894694
-4.5800000000000001,-0.01517592110152953
-4.5787500000000003,-0.0039343159526507906
-4.5774999999999997,0.0062853250917978814
-4.5762499999999999,0.014461037927346057
-4.5750000000000002,0.020592822554009974
-4.5737500000000004,0.024680678971784054
-4.5724999999999998,0.026383952479192563
-4.57125,0.025702643076229909
-4.5700000000000003,0.023999369568823259
-4.5687499999999996,0.020933477255488976
-4.5674999999999999,0.015823656733271366
-4.5662500000000001,0.010373181509570117
-4.5650000000000004,0.0062853250917960226
-4.5637499999999998,0.0052633609873501824
-4.5625,0.0083292533006821406
-4.5612500000000002,0.015142347330308711
-4.5599999999999996,0.024680678971791024
-4.5587499999999999,0.035922284120669751
-4.5575000000000001,0.047163889269553588
-4.5562500000000004,0.056361566209545279
-4.5549999999999997,0.061471386731769384
-4.55375,0.062152696134732038
-4.5525000000000002,0.058746149119918767
-4.5512499999999996,0.052614364493251291
-4.5499999999999998,0.044779306359184284
-4.5487500000000001,0.036603593523632405
-4.5475000000000003,0.027405916583640715
-4.5462499999999997,0.017526930240673214
-4.5449999999999999,0.0069666344947568321
-4.5437500000000002,-0.0035936612511643512
-4.5425000000000004,-0.012110028788193698
-4.5412499999999998,-0.018241813414861488
-4.54,-0.021307705728193432
-4.5387500000000003,-0.021307705728193432
-4.5374999999999996,-0.017560504011894948
-4.5362499999999999,-0.0090441364748656133
-4.5350000000000001,0.0028787780769808785
-4.5337500000000004,0.015823656733265481
-4.5324999999999998,0.026383952479192563
-4.53125,0.035922284120669751
-4.5300000000000002,0.043076032851777663
-4.5287499999999996,0.04954847217992444
-4.5274999999999999,0.052955019194736164
-4.5262500000000001,0.053295673896217505
-4.5250000000000004,0.051592400388811632
-4.5237499999999997,0.047163889269553588
-4.5225,0.038988176434001709
-4.5212500000000002,0.028768535389561839
-4.5199999999999996,0.01854889434511859
-4.5187499999999998,0.011054490912532772
-4.5175000000000001,0.0090105627036447949
-4.5162500000000003,0.013439073822900062
-4.5149999999999997,0.023318060165866631
-4.5137499999999999,0.036603593523632405
-4.5125000000000002,0.050570436284366888
-4.5112500000000004,0.062493350836207953
-4.5099999999999998,0.0710097183732466
-4.50875,0.077141502999910488
-4.5075000000000003,0.081910668820649096
-4.5062499999999996,0.0842952517310184
-4.5049999999999999,0.0842952517310184
-4.5037500000000001,0.082591978223611751
-4.5025000000000004,0.07952608591028118
-4.5012499999999998,0.074756920089541212
-4.5,0.068625135462877296
-4.4987500000000002,0.060108767925844075
-4.4974999999999996,0.048867162776954354
-4.4962499999999999,0.035922284120669751
-4.4950000000000001,0.023999369568823259
-4.4937500000000004,0.014801692628831567
-4.4924999999999997,0.0090105627036447949
-4.49125,0.0076479438977194864
-4.4900000000000002,0.01003252680808879
-4.4887499999999996,0.012757764419940802
-4.4874999999999998,0.015823656733271366
-4.4862500000000001,0.020252167852528632
-4.4850000000000003,0.026383952479189773
-4.4837499999999997,0.033878355911785507
-4.4824999999999999,0.042054068747333667
-4.4812500000000002,0.050911090985848201
-4.4800000000000004,0.058064839716952858
-4.4787499999999998,0.063174660239176034
-4.4775,0.066581207253989305
-4.4762500000000003,0.0710097183732466
-4.4749999999999996,0.075778884193987192
-4.4737499999999999,0.080207395313242447
-4.4725000000000001,0.083954597029537059
-4.4712500000000004,0.08599852523842412
-4.4699999999999998,0.087701798745831672
-4.46875,0.089405072253238321
-4.4675000000000002,0.091449000462126284
-4.4662499999999996,0.093492928671014733
-4.4649999999999999,0.094514892775458242
-4.4637500000000001,0.094514892775458242
-4.4625000000000004,0.094174238073977082
-4.4612499999999997,0.095196202178420897
-4.46,0.097921439790271542
-4.4587500000000002,0.10132798680508481
-4.4574999999999996,0.10473453381989919
-4.4562499999999998,0.10711911673026742
-4.4550000000000001,0.10950369964063672
-4.4537500000000003,0.1122289372524861
-4.4524999999999997,0.116316793670265
-4.4512499999999999,0.1200639953865579
-4.4500000000000002,0.12210792359544587
-4.4487500000000004,0.11938268598359646
-4.4474999999999998,0.11154762784952468
-4.44625,0.09928405859619685
-4.4450000000000003,0.0842952517310184
-4.4437499999999996,0.067943826059906898
-4.4424999999999999,0.050911090985848201
-4.4412500000000001,0.033878355911781788
-4.4400000000000004,0.018208239643647796
-4.4387499999999998,0.0049227062858688553
-4.4375,-0.0049562800570896737
-4.4362500000000002,-0.010406755280790922
-4.4349999999999996,-0.012450683489678123
-4.4337499999999999,-0.010747409982272249
-4.4325000000000001,-0.0070002082659776366
-4.4312500000000004,-0.0018903877437600391
-4.4299999999999997,0.0035600874799435467
-4.42875,0.0090105627036447949
-4.4275000000000002,0.013439073822902076
-4.4262499999999996,0.015483002031789884
-4.4249999999999998,0.015142347330308711
-4.4237500000000001,0.013439073822902076
-4.4225000000000003,0.011395145614015029
-4.4212499999999997,0.0093512174051259677
-4.4199999999999999,0.0090105627036447949
-4.4187500000000002,0.010373181509570117
-4.4175000000000004,0.013439073822900681
-4.4162499999999998,0.017186275539196688
-4.415,0.020592822554009974
-4.4137500000000003,0.021274131956972628
-4.4124999999999996,0.018208239643637728
-4.4112499999999999,0.011735800315495426
-4.4100000000000001,0.0025381233754995514
-4.4087500000000004,-0.0080221723704168302
-4.4074999999999998,-0.018241813414861488
-4.40625,-0.027439490354857349
-4.4050000000000002,-0.035955857891890569
-4.4037499999999996,-0.044812880130409592
-4.4024999999999999,-0.054691866473363632
-4.4012500000000001,-0.065933471622247469
-4.4000000000000004,-0.079219004980013247
-4.3987499999999997,-0.094207811845197734
-4.3975,-0.10987792811333885
-4.3962500000000002,-0.12418542557555465
-4.3949999999999996,-0.13474572132147877
-4.3937499999999998,-0.14121816064962106
-4.3925000000000001,-0.14326208885850905
-4.3912500000000003,-0.14326208885850905
-4.3899999999999997,-0.14189947005258344
-4.3887499999999999,-0.14121816064962106
-4.3875000000000002,-0.14258077945554637
-4.3862500000000004,-0.14632798117183932
-4.3849999999999998,-0.15109714699257959
-4.38375,-0.15416303930591155
-4.3825000000000003,-0.15654762221628085
-4.3812499999999996,-0.15927285982813352
-4.3799999999999999,-0.16370137094738874
-4.3787500000000001,-0.16881119146960868
-4.3775000000000004,-0.1735803572903451
-4.3762499999999998,-0.17698690430516056
-4.375,-0.18005279661849252
-4.3737500000000002,-0.18141541542441783
-4.3724999999999996,-0.18107476072293524
-4.3712499999999999,-0.17834952311108587
-4.3700000000000001,-0.17153642908145933
-4.3687500000000004,-0.16131678803702409
-4.3674999999999997,-0.14973452818665428
-4.36625,-0.13713030423184513
-4.3650000000000002,-0.1258886990829613
-4.3637499999999996,-0.11737233154592591
-4.3624999999999998,-0.11260316572518948
-4.3612500000000001,-0.11192185632222681
-4.3600000000000003,-0.11600971274000091
-4.3587499999999997,-0.12146018796370665
-4.3574999999999999,-0.12725131788888661
-4.3562500000000002,-0.13099851960518122
-4.3550000000000004,-0.13236113841110592
-4.3537499999999998,-0.13236113841110653
-4.3525,-0.13236113841110653
-4.3512500000000003,-0.13236113841110653
-4.3499999999999996,-0.13304244781406935
-4.3487499999999999,-0.13338310251555052
-4.3475000000000001,-0.13304244781406918
-4.3462500000000004,-0.13236113841110683
-4.3449999999999998,-0.13338310251555052
-4.34375,-0.13644899482888248
-4.3425000000000002,-0.14053685124665841
-4.3412499999999996,-0.14428405296295427
-4.3399999999999999,-0.14700929057480366
-4.3387500000000001,-0.14666863587332232
-4.3375000000000004,-0.14326208885851061
-4.3362499999999997,-0.13644899482888248
-4.335,-0.12691066318740526
-4.3337500000000002,-0.11600971274000277
-4.3324999999999996,-0.10510876229259668
-4.3312499999999998,-0.097273704158529692
-4.3300000000000001,-0.092504538337791098
-4.3287500000000003,-0.091482574233347561
-4.3274999999999997,-0.092845193039273508
-4.3262499999999999,-0.095229775949641729
-4.3250000000000002,-0.098976977665936341
-4.3237500000000004,-0.10306483408371042
-4.3224999999999998,-0.10681203580000689
-4.32125,-0.10953727341185752
-4.3200000000000003,-0.11158120162074549
-4.3187499999999996,-0.11294382042667174
-4.3174999999999999,-0.11498774863555877
-4.3162500000000001,-0.1177129862474094
-4.3150000000000004,-0.12111953326222114
-4.3137499999999998,-0.12520738967999864
-4.3125,-0.12759197259036792
-4.3112500000000002,-0.1282732819933306
-4.3099999999999996,-0.1282732819933303
-4.3087499999999999,-0.12759197259036792
-4.3075000000000001,-0.12725131788888661
-4.3062500000000004,-0.12759197259036775
-4.3049999999999997,-0.12793262729184926
-4.30375,-0.12759197259036792
-4.3025000000000002,-0.1248667349785173
-4.3012499999999996,-0.1211195332622213
-4.2999999999999998,-0.11805364094889073
-4.2987500000000001,-0.1153284033370401
-4.2975000000000003,-0.1153284033370401
-4.2962499999999997,-0.1187349503518554
-4.2949999999999999,-0.12316346147111067
-4.2937500000000002,-0.12691066318740526
-4.2925000000000004,-0.12861393669481114
-4.2912499999999998,-0.1282732819933306
-4.29,-0.12622935378444261
-4.2887500000000003,-0.12350411617259199
-4.2874999999999996,-0.12043822385925802
-4.2862499999999999,-0.11600971274000277
-4.2850000000000001,-0.1091966187103762
-4.2837500000000004,-0.10102090587482802
-4.2824999999999998,-0.091482574233347103
-4.28125,-0.083988170800757878
-4.2800000000000002,-0.079559659681500611
-4.2787499999999996,-0.076834422069648897
-4.2774999999999999,-0.07444983915928069
-4.2762500000000001,-0.072065256248911386
-4.2750000000000004,-0.068658709234099655
-4.2737499999999997,-0.06627412632372881
-4.2725,-0.065252162219284815
-4.2712500000000002,-0.065252162219284815
-4.2699999999999996,-0.067296090428174332
-4.2687499999999998,-0.070702637442986077
-4.2675000000000001,-0.075131148562243344
-4.2662500000000003,-0.080581623785942122
-4.2649999999999997,-0.087394717815574577
-4.2637499999999999,-0.094889121248160402
-4.2625000000000002,-0.1020428699792683
-4.2612500000000004,-0.10885596400889176
-4.2599999999999998,-0.11566905803852143
-4.25875,-0.12043822385926004
-4.2575000000000003,-0.12316346147111067
-4.2562499999999996,-0.1238447708740727
-4.2549999999999999,-0.122482152068148
-4.2537500000000001,-0.11941625975481604
-4.2525000000000004,-0.11600971274000432
-4.2512499999999998,-0.11158120162074549
-4.25,-0.10613072639704424
-4.2487500000000002,-0.099998941770380323
-4.2474999999999996,-0.093185847740751115
-4.2462499999999999,-0.087394717815571163
-4.2450000000000001,-0.084669480203720546
-4.2437500000000004,-0.085691444308164069
-4.2424999999999997,-0.090460610128903121
-4.24125,-0.096933049457048365
-4.2400000000000002,-0.10306483408371228
-4.2387499999999996,-0.10783399990445211
-4.2374999999999998,-0.11055923751630151
-4.2362500000000001,-0.11158120162074549
-4.2350000000000003,-0.11055923751630196
-4.2337499999999997,-0.10851530930741216
-4.2324999999999999,-0.10544941699408159
-4.2312500000000002,-0.10136156057630563
-4.2300000000000004,-0.097273704158531552
-4.2287499999999998,-0.091823228934828444
-4.2275,-0.085691444308164527
-4.2262500000000003,-0.079219004980019284
-4.2249999999999996,-0.073427875054834835
-4.2237499999999999,-0.069340018637060755
-4.2225000000000001,-0.067977399831135446
-4.2212500000000004,-0.06934001863706013
-4.2199999999999998,-0.072405910950392713
-4.21875,-0.07683442206964998
-4.2175000000000002,-0.080922278487425919
-4.2162499999999996,-0.085691444308167317
-4.2149999999999999,-0.091823228934828444
-4.2137500000000001,-0.099998941770380323
-4.2125000000000004,-0.10885596400889083
-4.2112499999999997,-0.11737233154592808
-4.21,-0.12622935378444261
-4.2087500000000002,-0.13474572132147583
-4.2074999999999996,-0.14326208885851216
-4.2062499999999998,-0.15007518288813562
-4.2050000000000001,-0.15348172990294889
-4.2037500000000003,-0.15382238460443007
-4.2024999999999997,-0.15211911109702267
-4.2012499999999999,-0.15007518288813562
-4.2000000000000002,-0.14734994527628498
-4.1987500000000004,-0.14224012475406739
-4.1974999999999998,-0.13474572132147583
-4.19625,-0.12657000848592395
-4.1950000000000003,-0.11941625975481604
-4.1937499999999996,-0.11532840333703948
-4.1924999999999999,-0.11396578453111479
-4.1912500000000001,-0.11669102214296542
-4.1900000000000004,-0.12146018796370185
-4.1887499999999998,-0.12793262729184926
-4.1875,-0.13372375721703184
-4.1862500000000002,-0.13747095893332645
-4.1849999999999996,-0.13985554184369622
-4.1837499999999999,-0.14087750594813975
-4.1825000000000001,-0.14087750594813975
-4.1812500000000004,-0.13917423244073387
-4.1799999999999997,-0.13678964953036379
-4.17875,-0.13406441191851318
-4.1775000000000002,-0.12963590079925591
-4.1762499999999996,-0.12282280676962577
-4.1749999999999998,-0.11498774863555877
-4.1737500000000001,-0.10510876229260024
-4.1725000000000003,-0.094548466546683863
-4.1712499999999997,-0.082966206696309094
-4.1699999999999999,-0.072405910950392713
-4.1687500000000002,-0.06423019811484082
-4.1675000000000004,-0.057076449383736183
-4.1662499999999998,-0.051285319458550346
-4.165,-0.046516153637811745
-4.1637500000000003,-0.043790916025961121
-4.1624999999999996,-0.042087642518553861
-4.1612499999999999,-0.040725023712629163
-4.1600000000000001,-0.040043714309666509
-4.1587500000000004,-0.0414063331155912
-4.1574999999999998,-0.045834844234849091
-4.15625,-0.054351211771882305
-4.1550000000000002,-0.065252162219284815
-4.1537499999999996,-0.075812457965210647
-4.1524999999999999,-0.086032099009645854
-4.1512500000000001,-0.093867157143716407
-4.1500000000000004,-0.099658287068896359
-4.1487499999999997,-0.10272417938223095
-4.1475,-0.10510876229260024
-4.1462500000000002,-0.10715269050148822
-4.1449999999999996,-0.10919661871037713
-4.1437499999999998,-0.11124054691926416
-4.1425000000000001,-0.11294382042667081
-4.1412500000000003,-0.11362512982963316
-4.1399999999999997,-0.11396578453111494
-4.1387499999999999,-0.11430643923259612
-4.1375000000000002,-0.11328447512815214
-4.1362500000000004,-0.10987792811334041
-4.1349999999999998,-0.10374614348667494
-4.13375,-0.095911085352604383
-4.1325000000000003,-0.086032099009645854
-4.1312499999999996,-0.076153112666683759
-4.1299999999999999,-0.068318054532616773
-4.1287500000000001,-0.062867579308915511
-4.1275000000000004,-0.061164305801509652
-4.1262499999999998,-0.063548888711878165
-4.125,-0.069340018637060755
-4.1237500000000002,-0.07683442206964998
-4.1224999999999996,-0.08501013490520512
-4.1212499999999999,-0.092163883636309771
-4.1200000000000001,-0.096933049457048365
-4.1187500000000004,-0.099998941770378935
-4.1174999999999997,-0.10170221527778696
-4.11625,-0.10374614348667494
-4.1150000000000002,-0.10579007169556291
-4.1137499999999996,-0.10851530930741493
-4.1124999999999998,-0.11158120162074549
-4.1112500000000001,-0.11430643923259612
-4.1100000000000003,-0.11498774863555847
-4.1087499999999997,-0.11362512982963238
-4.1074999999999999,-0.11124054691926416
-4.1062500000000002,-0.10783399990445088
-4.1050000000000004,-0.10306483408371445
-4.1037499999999998,-0.097273704158529692
-4.1025,-0.088757336621496485
-4.1012500000000003,-0.079900314382981938
-4.0999999999999996,-0.071724601547427269
-4.0987499999999999,-0.065592816920766142
-4.0975000000000001,-0.061164305801508875
-4.0962500000000004,-0.05946103229410301
-4.0949999999999998,-0.062186269905952857
-4.09375,-0.069340018637060755
-4.0925000000000002,-0.078878350278537956
-4.0912499999999996,-0.089779300725945269
-4.0899999999999999,-0.10033959647186165
-4.0887500000000001,-0.11055923751630151
-4.0875000000000004,-0.11941625975481202
-4.0862499999999997,-0.1258886990829613
-4.085,-0.12963590079925591
-4.0837500000000002,-0.13031721020221856
-4.0824999999999996,-0.12963590079925499
-4.0812499999999998,-0.12759197259036792
-4.0800000000000001,-0.12520738967999864
-4.0787500000000003,-0.12282280676963042
-4.0774999999999997,-0.12111953326222206
-4.0762499999999999,-0.11975691445629738
-4.0750000000000002,-0.1177129862474094
-4.0737500000000004,-0.11328447512815415
-4.0724999999999998,-0.10851530930741354
-4.07125,-0.10374614348667494
-4.0700000000000003,-0.1010209058748243
-4.0687499999999996,-0.10170221527778882
-4.0674999999999999,-0.10579007169556291
-4.0662500000000001,-0.11124054691926416
-4.0650000000000004,-0.11737233154592529
-4.0637499999999998,-0.12111953326222269
-4.0625,-0.12282280676962934
-4.0612500000000002,-0.122482152068148
-4.0599999999999996,-0.12111953326222161
-4.0587499999999999,-0.11873495035185339
-4.0575000000000001,-0.11498774863555877
-4.0562500000000004,-0.10919661871037883
-4.0549999999999997,-0.10238352468074963
-4.05375,-0.095911085352604383
-4.0525000000000002,-0.089779300725940467
-4.0512499999999996,-0.084328825502237054
-4.0499999999999998,-0.079559659681500611
-4.0487500000000001,-0.075812457965205998
-4.0475000000000003,-0.072065256248913093
-4.0462499999999997,-0.06695543572668898
-4.0449999999999999,-0.061504960502990202
-4.0437500000000002,-0.05571383057780762
-4.0425000000000004,-0.051285319458552359
-4.0412499999999998,-0.048900736548181049
-4.04,-0.048219427145218388
-4.0387500000000003,-0.04685680833929308
-4.0374999999999996,-0.044812880130403243
-4.0362499999999999,-0.040725023712629163
-4.0350000000000001,-0.034933893787446574
-4.0337500000000004,-0.028120799757823101
-4.0324999999999998,-0.021307705728193432
-4.03125,-0.014835266400048203
-4.0300000000000002,-0.0093847911763469405
-4.0287499999999996,-0.0049562800570881246
-4.0274999999999999,-0.0015497330422763883
-4.0262500000000001,0.0025381233754995514
-4.0250000000000004,0.006966634494754818
-4.0237499999999997,0.01241710971845808
-4.0225,0.017526930240678015
-4.0212500000000002,0.021614786658453955
-4.0199999999999996,0.024340024270305207
-4.0187499999999998,0.025702643076229909
-4.0175000000000001,0.026724607180673876
-4.0162500000000003,0.028768535389560909
-4.0149999999999997,0.032175082404377615
-4.0137499999999999,0.0376255576280764
-4.0125000000000002,0.044438651657702971
-4.0112500000000004,0.052955019194732292
-4.0099999999999998,0.061130732030288071
-4.00875,0.068284480761395955
-4.0075000000000003,0.075097574791022526
-4.0062499999999996,0.079185431208798174
-4.0049999999999999,0.078504121805835825
-4.0037500000000001,0.072031682477690567
-4.0025000000000004,0.059768113224368313
-4.0012499999999998,0.042054068747333667
-4,0.01820823964364067
-3.9987499999999998,-0.012450683489678899
-3.9975000000000001,-0.049241391249662377
-3.9962499999999999,-0.08943864602445914
-3.9950000000000001,-0.1282732819933306
-3.9937499999999999,-0.16267940684294477
-3.9925000000000002,-0.19129440176737636
-3.99125,-0.21275564796070007
-3.9900000000000002,-0.22910707363180383
-3.98875,-0.240689333482169
-3.9874999999999998,-0.24784308221327689
-3.9862500000000001,-0.25056831982512751
-3.9849999999999999,-0.24988701042216485
-3.9837500000000001,-0.24579915400438893
-3.9824999999999999,-0.23966736937772501
-3.9812500000000002,-0.23217296594513578
-3.98,-0.22297528900513991
-3.9787499999999998,-0.21411826676662538
-3.9775,-0.20628320863255481
-3.9762499999999998,-0.19912945990144693
-3.9750000000000001,-0.19231636587182033
-3.9737499999999999,-0.18516261714071244
-3.9725000000000001,-0.17766821370812322
-3.9712499999999999,-0.16744857266368335
-3.9700000000000002,-0.1548443487088742
-3.96875,-0.14019619654517709
-3.9674999999999998,-0.12452608027703597
-3.9662500000000001,-0.10885596400889486
-3.9649999999999999,-0.094207811845197734
-3.9637500000000001,-0.08126293318890726
-3.9624999999999999,-0.071383946845948731
-3.9612500000000002,-0.063548888711878165
-3.96,-0.057417104085214263
-3.9587500000000002,-0.053669902368919643
-3.9575,-0.051966628861513001
-3.9562499999999998,-0.051966628861513001
-3.9550000000000001,-0.051625974160031673
-3.9537499999999999,-0.051625974160031673
-3.9525000000000001,-0.051966628861513001
-3.9512499999999999,-0.051625974160031673
-3.9500000000000002,-0.051285319458550346
-3.94875,-0.049922700652625031
-3.9474999999999998,-0.047878772443737061
-3.94625,-0.045494189533367764
-3.9449999999999998,-0.04310960662299846
-3.9437500000000001,-0.039703059608185175
-3.9424999999999999,-0.034933893787446574
-3.9412500000000001,-0.029483418563745326
-3.9399999999999999,-0.023351633937081409
-3.9387500000000002,-0.016197885205973511
-3.9375,-0.008362827071902959
-3.9362499999999998,-0.00018711423635106583
-3.9350000000000001,0.0093512174051261221
-3.9337499999999999,0.018548894345121997
-3.9325000000000001,0.02740591658363653
-3.9312499999999999,0.033878355911781788
-3.9300000000000002,0.0376255576280764
-3.92875,0.038306867031039055
-3.9275000000000002,0.036603593523632405
-3.92625,0.032856391807337793
-3.9249999999999998,0.027746571285117871
-3.9237500000000001,0.020933477255491301
-3.9224999999999999,0.013779728524383403
-3.9212500000000001,0.0059446703903128367
-3.9199999999999999,-0.0012090783407950612
-3.9187500000000002,-0.0059782441615336551
-3.9175,-0.0093847911763469405
-3.9162499999999998,-0.012110028788197572
-3.915,-0.013813302295604207
-3.9137499999999998,-0.014835266400048203
-3.9125000000000001,-0.01517592110152953
-3.9112499999999999,-0.014153956997085534
-3.9100000000000001,-0.011769374086716244
-3.9087499999999999,-0.0066595535644963094
-3.9075000000000002,0.0011755045695742428
-3.90625,0.012076455016976753
-3.9049999999999998,0.025361988374748567
-3.9037500000000001,0.040010140538445704
-3.9024999999999999,0.053976983299180159
-3.9012500000000001,0.064877933746582683
-3.8999999999999999,0.073734955985097217
-3.8987500000000002,0.079526085910279792
-3.8975,0.082932632925093092
-3.8962500000000002,0.0842952517310184
-3.895,0.083613942328055746
-3.8937499999999998,0.080888704716205101
-3.8925000000000001,0.077141502999910488
-3.8912499999999999,0.071350373074727913
-3.8900000000000001,0.063174660239176034
-3.8887499999999999,0.054658292702142813
-3.8875000000000002,0.045119961060665625
-3.88625,0.037284902926595059
-3.8849999999999998,0.031493773001412484
-3.88375,0.028768535389561839
-3.8824999999999998,0.028427880688080526
-3.8812500000000001,0.030131154195487175
-3.8799999999999999,0.033878355911781788
-3.8787500000000001,0.038306867031039055
-3.8774999999999999,0.042735378150296321
-3.8762500000000002,0.046141925165109593
-3.875,0.047163889269553588
-3.8737499999999998,0.046823234568072275
-3.8725000000000001,0.04580127046362828
-3.8712499999999999,0.045119961060665625
-3.8700000000000001,0.04580127046362828
-3.8687499999999999,0.047504543971034929
-3.8675000000000002,0.050229781582885547
-3.86625,0.053636328597698846
-3.8650000000000002,0.056361566209549463
-3.86375,0.058064839716956113
-3.8624999999999998,0.058746149119918767
-3.8612500000000001,0.058405494418437426
-3.8599999999999999,0.058064839716956113
-3.8587500000000001,0.056702220911030776
-3.8574999999999999,0.053976983299180159
-3.8562500000000002,0.049207817478441551
-3.855,0.042735378150296321
-3.8537499999999998,0.035922284120669751
-3.8525,0.029790499494005834
-3.8512499999999998,0.024680678971785913
-3.8500000000000001,0.020933477255491301
-3.8487499999999999,0.018548894345121997
-3.8475000000000001,0.017526930240678015
-3.8462499999999999,0.019230203748084651
-3.8450000000000002,0.023999369568823259
-3.84375,0.032175082404375138
-3.8424999999999998,0.041713414045852326
-3.8412500000000001,0.051251745687329542
-3.8399999999999999,0.059768113224362734
-3.8387500000000001,0.068284480761395955
-3.8374999999999999,0.078163467104354484
-3.8362500000000002,0.089405072253238321
-3.835,0.10030602270064085
-3.8337500000000002,0.11120697314804334
-3.8325,0.12142661419248321
-3.8312499999999998,0.13164625523692305
-3.8300000000000001,0.13914065866951228
-3.8287499999999999,0.14459113389321354
-3.8275000000000001,0.14833833560950815
-3.8262499999999999,0.15106357322135877
-3.8250000000000002,0.15276684672876545
-3.82375,0.15344815613172808
-3.8224999999999998,0.15242619202728408
-3.82125,0.15004160911691478
-3.8199999999999998,0.14629440740062019
-3.8187500000000001,0.14118458687840027
-3.8174999999999999,0.13539345695321767
-3.8162500000000001,0.1285803629235911
-3.8149999999999999,0.12210792359544587
-3.8137500000000002,0.1166574483717446
-3.8125,0.11359155605841265
-3.8112499999999998,0.11325090135693133
-3.8100000000000001,0.11461352016285664
-3.8087499999999999,0.1166574483717446
-3.8075000000000001,0.1176794124761886
-3.8062499999999999,0.11699810307322595
-3.8050000000000002,0.1152948295658193
-3.80375,0.11359155605841265
-3.8025000000000002,0.11154762784952468
-3.80125,0.10848173553619272
-3.7999999999999998,0.10473453381989811
-3.7987500000000001,0.10064667740212216
-3.7974999999999999,0.097240130387308887
-3.7962500000000001,0.094174238073976929
-3.7949999999999999,0.089405072253238321
-3.7937500000000002,0.0842952517310184
-3.7925,0.077141502999910488
-3.7912499999999998,0.0676031713584333
-3.79,0.056020911508068122
-3.7887499999999998,0.043416687553258976
-3.7875000000000001,0.030471808896968489
-3.7862499999999999,0.019230203748084651
-3.7850000000000001,0.0096918721066074492
-3.7837499999999999,0.0015161592710555699
-3.7825000000000002,-0.0046156253556083465
-3.78125,-0.0090441364748656133
-3.7799999999999998,-0.011769374086716244
-3.7787500000000001,-0.013131992892641553
-3.7774999999999999,-0.014835266400048203
-3.7762500000000001,-0.017219849310417493
-3.7749999999999999,-0.020626396325230778
-3.7737500000000002,-0.023351633937081409
-3.7725,-0.025395562145969386
-3.7712500000000002,-0.023692288638562736
-3.77,-0.017219849310417493
-3.7687499999999998,-0.0066595535644963094
-3.7675000000000001,0.0062853250917941639
-3.7662499999999999,0.018548894345121997
-3.7650000000000001,0.029449844792524521
-3.7637499999999999,0.037966212329557714
-3.7625000000000002,0.04409799695622163
-3.76125,0.047845198672516243
-3.7599999999999998,0.048526508075478897
-3.75875,0.044779306359184284
-3.7574999999999998,0.036944248225113746
-3.7562500000000001,0.024680678971785913
-3.7549999999999999,0.011054490912532772
-3.7537500000000001,-0.0025716971467203698
-3.7524999999999999,-0.015516575803010857
-3.7512500000000002,-0.028120799757820003
-3.75,-0.040043714309666509
-3.7487499999999998,-0.052307283562994335
-3.7475000000000001,-0.064911507517803488
-3.7462499999999999,-0.077856386174093975
-3.7450000000000001,-0.090119955427421794
-3.7437499999999999,-0.10170221527778696
-3.7425000000000002,-0.11226251102370816
-3.74125,-0.12146018796370402
-3.7400000000000002,-0.12929524609777457
-3.73875,-0.13304244781406918
-3.7374999999999998,-0.13270179311258787
-3.7362500000000001,-0.12759197259036792
-3.7349999999999999,-0.11975691445629738
-3.7337500000000001,-0.11192185632222681
-3.7324999999999999,-0.10544941699408159
-3.7312500000000002,-0.1010209058748243
-3.73,-0.098295668262973687
-3.7287499999999998,-0.094548466546679061
-3.7275,-0.089097991322977813
-3.7262499999999998,-0.082284897293351242
-3.7250000000000001,-0.075471803263724671
-3.7237499999999999,-0.071383946845948731
-3.7225000000000001,-0.070361982741504736
-3.7212499999999999,-0.071724601547430059
-3.7200000000000002,-0.074109184457799349
-3.71875,-0.078197040875575302
-3.7174999999999998,-0.08364751609927655
-3.7162500000000001,-0.090460610128903121
-3.7149999999999999,-0.097273704158529692
-3.7137500000000001,-0.10306483408371228
-3.7124999999999999,-0.10715269050148822
-3.7112500000000002,-0.1091966187103762
-3.71,-0.11089989221778283
-3.7087500000000002,-0.11260316572518948
-3.7075,-0.11464709393407745
-3.7062499999999998,-0.11600971274000277
-3.7050000000000001,-0.11566905803852143
-3.7037499999999999,-0.11430643923259612
-3.7025000000000001,-0.11192185632222681
-3.7012499999999999,-0.1081746546059322
-3.7000000000000002,-0.10272417938223095
-3.69875,-0.096933049457048365
-3.6974999999999998,-0.091141919531865789
-3.69625,-0.087054063114089836
-3.6949999999999998,-0.08364751609927655
-3.6937500000000001,-0.081944242591869915
-3.6924999999999999,-0.080240969084463265
-3.6912500000000001,-0.079219004980019284
-3.6899999999999999,-0.078537695577056629
-3.6887500000000002,-0.078878350278537956
-3.6875,-0.079559659681500611
-3.6862499999999998,-0.08126293318890726
-3.6850000000000001,-0.082966206696313896
-3.6837499999999999,-0.082966206696313896
-3.6825000000000001,-0.081944242591869915
-3.6812499999999999,-0.079559659681500611
-3.6800000000000002,-0.075471803263724671
-3.67875,-0.071383946845948731
-3.6775000000000002,-0.067636745129654119
-3.67625,-0.06423019811484082
-3.6749999999999998,-0.05980168699558356
-3.6737500000000001,-0.055032521174844959
-3.6724999999999999,-0.050604010055587692
-3.6712500000000001,-0.046516153637811745
-3.6699999999999999,-0.041406333115591817
-3.6687500000000002,-0.034933893787446574
-3.6675,-0.028120799757820003
-3.6662499999999998,-0.022670324534118755
-3.665,-0.020967051026712105
-3.6637499999999998,-0.023351633937081409
-3.6625000000000001,-0.029142763862263998
-3.6612499999999999,-0.036296512593371896
-3.6600000000000001,-0.044472225428923776
-3.6587499999999999,-0.052988592965956989
-3.6575000000000002,-0.059461032294102233
-3.65625,-0.061504960502990202
-3.6549999999999998,-0.057076449383732929
-3.6537500000000001,-0.047197463040774407
-3.6524999999999999,-0.035274548488927901
-3.6512500000000001,-0.023010979235600082
-3.6499999999999999,-0.011428719385234917
-3.6487500000000002,-0.0039343159526456783
-3.6475,-0.00052776893783239298
-3.6462500000000002,-0.00086842363931373401
-3.645,-0.0049562800570896737
-3.6437499999999998,-0.011428719385234917
-3.6425000000000001,-0.019263777519305469
-3.6412499999999999,-0.029142763862263998
-3.6400000000000001,-0.039703059608185175
-3.6387499999999999,-0.051285319458550346
-3.6375000000000002,-0.061504960502990202
-3.63625,-0.068999363935579427
-3.6349999999999998,-0.073768529756318035
-3.63375,-0.076153112666687325
-3.6324999999999998,-0.077175076771131307
-3.6312500000000001,-0.077856386174093975
-3.6299999999999999,-0.078197040875575302
-3.6287500000000001,-0.079559659681500611
-3.6274999999999999,-0.080922278487425919
-3.6262500000000002,-0.082966206696313896
-3.625,-0.085691444308164527
-3.6237499999999998,-0.08773537251705249
-3.6225000000000001,-0.088416681920015158
-3.6212499999999999,-0.0853507896066832
-3.6200000000000001,-0.078197040875575302
-3.6187499999999999,-0.0686587092340981
-3.6175000000000002,-0.057417104085214263
-3.61625,-0.047197463040774407
-3.6150000000000002,-0.039703059608185175
-3.61375,-0.034593239085965247
-3.6124999999999998,-0.031527346772633288
-3.6112500000000001,-0.029824073265226653
-3.6099999999999999,-0.030505382668189307
-3.6087500000000001,-0.033230620280039938
-3.6074999999999999,-0.038340440802259866
-3.6062500000000002,-0.044812880130405103
-3.605,-0.050604010055587692
-3.6037499999999998,-0.055032521174844959
-3.6025,-0.057417104085214263
-3.6012499999999998,-0.05775775878669559
-3.6000000000000001,-0.056395139980770274
-3.5987499999999999,-0.053329247667438316
-3.5975000000000001,-0.048219427145218388
-3.5962499999999999,-0.041406333115591817
-3.5950000000000002,-0.032208656175595957
-3.59375,-0.021989015131156101
-3.5924999999999998,-0.011769374086716244
-3.5912500000000001,-0.0035936612511643512
-3.5899999999999999,0.0018568139725368971
-3.5887500000000001,0.0049227062858688553
-3.5874999999999999,0.0049227062858688553
-3.5862500000000002,0.0015161592710555699
-3.585,-0.0052969347585710008
-3.5837500000000002,-0.01517592110152953
-3.5825,-0.025395562145969386
-3.5812499999999998,-0.03425258438448392
-3.5800000000000001,-0.042087642518554479
-3.5787499999999999,-0.048900736548181049
-3.5775000000000001,-0.05571383057780762
-3.5762499999999999,-0.060482996398546214
-3.5750000000000002,-0.062867579308915511
-3.57375,-0.063208234010396852
-3.5724999999999998,-0.060482996398546214
-3.57125,-0.055032521174844959
-3.5699999999999998,-0.048219427145218388
-3.5687500000000001,-0.041746987817073151
-3.5674999999999999,-0.037659131399297205
-3.5662500000000001,-0.035955857891890569
-3.5649999999999999,-0.036977821996334551
-3.5637500000000002,-0.039703059608185175
-3.5625,-0.04310960662299846
-3.5612499999999998,-0.046175498936330418
-3.5600000000000001,-0.049582045951143704
-3.5587499999999999,-0.052307283562994335
-3.5575000000000001,-0.053329247667438316
-3.5562499999999999,-0.052988592965956989
-3.5550000000000002,-0.052988592965956989
-3.55375,-0.054691866473363632
-3.5525000000000002,-0.057417104085214263
-3.55125,-0.060142341697064887
-3.5499999999999998,-0.061164305801508875
-3.5487500000000001,-0.060482996398546214
-3.5474999999999999,-0.057076449383732929
-3.5462500000000001,-0.052647938264475662
-3.5449999999999999,-0.047538117742255734
-3.5437500000000002,-0.04310960662299846
-3.5425,-0.040043714309666509
-3.5412499999999998,-0.03902175020522252
-3.54,-0.040384369011147836
-3.5387499999999998,-0.043450261324479794
-3.5375000000000001,-0.047538117742255734
-3.5362499999999999,-0.051285319458550346
-3.5350000000000001,-0.052647938264475662
-3.5337499999999999,-0.052307283562994335
-3.5325000000000002,-0.049922700652625031
-3.53125,-0.046516153637811745
-3.5299999999999998,-0.042768951921517133
-3.5287500000000001,-0.03902175020522252
-3.5274999999999999,-0.037999786100778532
-3.5262500000000001,-0.038681095503741193
-3.5249999999999999,-0.040043714309666509
-3.5237500000000002,-0.040725023712629163
-3.5225,-0.040725023712629163
-3.5212500000000002,-0.038681095503741193
-3.52,-0.035615203190409242
-3.5187499999999998,-0.032208656175595957
-3.5175000000000001,-0.027439490354857349
-3.5162499999999999,-0.021307705728193432
-3.5150000000000001,-0.014494611698566862
-3.5137499999999999,-0.0076815176689403047
-3.5125000000000002,-0.0018903877437577155
-3.51125,0.0021974686740182242
-3.5099999999999998,0.0045820515843875281
-3.50875,0.0028787780769808785
-3.5074999999999998,-0.0022310424452390426
-3.5062500000000001,-0.01108806468375359
-3.5049999999999999,-0.022670324534118755
-3.5037500000000001,-0.035615203190409242
-3.5024999999999999,-0.049922700652625031
-3.5012500000000002,-0.062526924607434198
-3.5,-0.07274656565187404
-3.4987499999999998,-0.079900314382981938
-3.4975000000000001,-0.081944242591869915
-3.4962499999999999,-0.079219004980019284
-3.4950000000000001,-0.072405910950392713
-3.4937499999999999,-0.06184561520447153
-3.4925000000000002,-0.048219427145218388
-3.49125,-0.033230620280039938
-3.4900000000000002,-0.017901158713380147
-3.48875,-0.0025716971467203698
-3.4874999999999998,0.011054490912532772
-3.4862500000000001,0.020933477255491301
-3.4849999999999999,0.02740591658363653
-3.4837500000000001,0.029790499494005834
-3.4824999999999999,0.027065261882155217
-3.4812500000000002,0.020933477255491301
-3.48,0.01241710971845808
-3.4787499999999998,0.0021974686740182242
-3.4775,-0.0073408629674589637
-3.4762499999999998,-0.01517592110152953
-3.4750000000000001,-0.020967051026712105
-3.4737499999999999,-0.024373598041525391
-3.4725000000000001,-0.026417526250413367
-3.4712499999999999,-0.02607687154893204
-3.4700000000000002,-0.025054907444488059
-3.46875,-0.023351633937081409
-3.4674999999999998,-0.021989015131156101
-3.4662500000000001,-0.020626396325230778
-3.4649999999999999,-0.018923122817824142
-3.4637500000000001,-0.016538539907454838
-3.4624999999999999,-0.012791338191160226
-3.4612500000000002,-0.0087034817733842862
-3.46,-0.0049562800570896737
-3.4587500000000002,-0.0025716971467203698
-3.4575,-0.0018903877437577155
-3.4562499999999998,-0.0025716971467203698
-3.4550000000000001,-0.0032530065496830241
-3.4537499999999999,-0.0035936612511643512
-3.4525000000000001,-0.0022310424452390426
-3.4512499999999999,0.00049419516661158847
-3.4500000000000002,0.0032194327784622195
-3.44875,0.0052633609873501824
-3.4474999999999998,0.0059446703903128367
-3.44625,0.0062853250917941639
-3.4449999999999998,0.0069666344947568321
-3.4437500000000001,0.0066259797932755049
-3.4424999999999999,0.0052633609873501824
-3.4412500000000001,0.0025381233754995514
-3.4399999999999999,-0.0025716971467203698
-3.4387500000000002,-0.0097254458778282676
-3.4375,-0.018582468116342815
-3.4362499999999998,-0.028120799757820003
-3.4350000000000001,-0.037659131399297205
-3.4337499999999999,-0.047538117742255734
-3.4325000000000001,-0.056054485279288947
-3.4312499999999999,-0.062526924607434198
-3.4300000000000002,-0.065933471622247469
-3.42875,-0.067296090428172778
-3.4275000000000002,-0.067636745129654119
-3.42625,-0.067296090428172778
-3.4249999999999998,-0.06627412632372881
-3.4237500000000001,-0.064570852816322161
-3.4224999999999999,-0.06184561520447153
-3.4212500000000001,-0.058779722891139571
-3.4199999999999999,-0.055032521174844959
-3.4187500000000002,-0.051285319458550346
-3.4175,-0.04685680833929308
-3.4162499999999998,-0.042087642518554479
-3.415,-0.038681095503741193
-3.4137499999999998,-0.037659131399297205
-3.4125000000000001,-0.037999786100778532
-3.4112499999999999,-0.039703059608185175
-3.4100000000000001,-0.04310960662299846
-3.4087499999999999,-0.046175498936330418
-3.4075000000000002,-0.049241391249662377
-3.40625,-0.051625974160031673
-3.4049999999999998,-0.051966628861513001
-3.4037500000000001,-0.051625974160031673
-3.4024999999999999,-0.051285319458550346
-3.4012500000000001,-0.051285319458550346
-3.3999999999999999,-0.051966628861513001
-3.3987500000000002,-0.052647938264475662
-3.3975,-0.052988592965956989
-3.3962500000000002,-0.052307283562994335
-3.395,-0.050263355354106358
-3.3937499999999998,-0.047197463040774407
-3.3925000000000001,-0.042428297220035806
-3.3912499999999999,-0.034593239085965247
-3.3900000000000001,-0.024032943340044063
-3.3887499999999999,-0.01108806468375359
-3.3875000000000002,0.0035600874799435467
-3.38625,0.01820823964364067
-3.3849999999999998,0.031153118299931143
-3.38375,0.040691449941408359
-3.3824999999999998,0.046141925165109593
-3.3812500000000001,0.049207817478441551
-3.3799999999999999,0.048526508075478897
-3.3787500000000001,0.043757342254740317
-3.3774999999999999,0.036262938822151092
-3.3762500000000002,0.026724607180673876
-3.375,0.016164311434752693
-3.3737499999999998,0.0056040156888315096
-3.3725000000000001,-0.0042749706541270194
-3.3712499999999999,-0.011769374086716244
-3.3700000000000001,-0.015857230504492184
-3.3687499999999999,-0.016879194608936166
-3.3675000000000002,-0.01517592110152953
-3.36625,-0.011769374086716244
-3.3650000000000002,-0.0070002082659776366
-3.36375,-0.0025716971467203698
-3.3624999999999998,0.0018568139725368971
-3.3612500000000001,0.0076479438977194864
-3.3599999999999999,0.013779728524383403
-3.3587500000000001,0.020933477255491301
-3.3574999999999999,0.02910919009104318
-3.3562500000000002,0.037284902926595059
-3.355,0.045460615762146939
-3.3537499999999998,0.053636328597698846
-3.3525,0.062493350836213379
-3.3512499999999998,0.072031682477690567
-3.3500000000000001,0.081570014119167783
-3.3487499999999999,0.091108345760644971
-3.3475000000000001,0.097921439790271542
-3.3462499999999999,0.10200929620804747
-3.3450000000000002,0.10166864150656615
-3.34375,0.096218166282864892
-3.3424999999999998,0.085657870536943709
-3.3412500000000001,0.068965790164358609
-3.3399999999999999,0.047504543971034929
-3.3387500000000001,0.021274131956972628
-3.3374999999999999,-0.0090441364748656133
-3.3362500000000002,-0.042087642518554479
-3.335,-0.077856386174093975
-3.3337500000000002,-0.11430643923259612
-3.3325,-0.14973452818665428
-3.3312499999999998,-0.18209672482738049
-3.3300000000000001,-0.20832713684144277
-3.3287499999999999,-0.22774445482587852
-3.3275000000000001,-0.24034867878068766
-3.3262499999999999,-0.24784308221327689
-3.3250000000000002,-0.25193093863105287
-3.32375,-0.25363421213845949
-3.3224999999999998,-0.25363421213845949
-3.32125,-0.25124962922809019
-3.3199999999999998,-0.24579915400438893
-3.3187500000000001,-0.23660147706439305
-3.3174999999999999,-0.22501921721402787
-3.3162500000000001,-0.21343695736366272
-3.3149999999999999,-0.20049207870737223
-3.3137500000000002,-0.18686589064811909
-3.3125,-0.17323970258886595
-3.3112499999999998,-0.15995416923109412
-3.3100000000000001,-0.14666863587332232
-3.3087499999999999,-0.13304244781406918
-3.3075000000000001,-0.12009756915777871
-3.3062499999999999,-0.10647138109852557
-3.3050000000000002,-0.093185847740753752
-3.30375,-0.079900314382981938
-3.3025000000000002,-0.067636745129654119
-3.30125,-0.056054485279288947
-3.2999999999999998,-0.045494189533367764
-3.2987500000000001,-0.036977821996334551
-3.2974999999999999,-0.029824073265226653
-3.2962500000000001,-0.023351633937081409
-3.2949999999999999,-0.017219849310417493
-3.2937500000000002,-0.012791338191160226
-3.2925,-0.0093847911763469405
-3.2912499999999998,-0.005637589460052328
-3.29,-0.0015497330422763883
-3.2887499999999998,0.0039007421814248738
-3.2875000000000001,0.010713836211051445
-3.2862499999999999,0.017526930240678015
-3.2850000000000001,0.024680678971785913
-3.2837499999999999,0.031493773001412484
-3.2825000000000002,0.037284902926595059
-3.28125,0.041713414045852326
-3.2799999999999998,0.045119961060665625
-3.2787500000000001,0.04580127046362828
-3.2774999999999999,0.045119961060665625
-3.2762500000000001,0.04409799695622163
-3.2749999999999999,0.042735378150296321
-3.2737500000000002,0.042054068747333667
-3.2725,0.042735378150296321
-3.2712500000000002,0.045460615762146939
-3.27,0.049889126881404205
-3.2687499999999998,0.055680256806586809
-3.2675000000000001,0.06079007732880673
-3.2662499999999999,0.064877933746582683
-3.2650000000000001,0.0676031713584333
-3.2637499999999999,0.068284480761395955
-3.2625000000000002,0.068625135462877296
-3.26125,0.067943826059914642
-3.2599999999999998,0.066921861955470646
-3.25875,0.064196624343620029
-3.2574999999999998,0.060108767925844075
-3.2562500000000001,0.055680256806586809
-3.2549999999999999,0.050911090985848201
-3.2537500000000001,0.046823234568072275
-3.2524999999999999,0.043757342254740317
-3.2512500000000002,0.040350795239927018
-3.25,0.035240974717707096
-3.2487499999999998,0.028768535389561839
-3.2475000000000001,0.022636750762897936
-3.2462499999999999,0.019230203748084651
-3.2450000000000001,0.020252167852528632
-3.2437499999999999,0.024340024270304586
-3.2425000000000002,0.028768535389561839
-3.24125,0.030471808896968489
-3.2400000000000002,0.029790499494005834
-3.23875,0.027746571285117871
-3.2374999999999998,0.025361988374748567
-3.2362500000000001,0.023318060165860591
-3.2349999999999999,0.022296096061416609
-3.2337500000000001,0.023318060165860591
-3.2324999999999999,0.025361988374748567
-3.2312500000000002,0.02910919009104318
-3.23,0.034219010613263101
-3.2287499999999998,0.041032104642889672
-3.2275,0.048867162776960238
-3.2262499999999998,0.055680256806586809
-3.2250000000000001,0.060449422627325389
-3.2237499999999999,0.062493350836213379
-3.2225000000000001,0.061812041433250725
-3.2212499999999999,0.060108767925844075
-3.2200000000000002,0.05908680382140008
-3.21875,0.058405494418437426
-3.2174999999999998,0.058405494418437426
-3.2162500000000001,0.05908680382140008
-3.2149999999999999,0.060449422627325389
-3.2137500000000001,0.062152696134732038
-3.2124999999999999,0.063855969642138688
-3.2112500000000002,0.064877933746582683
-3.21,0.066240552552507992
-3.2087500000000002,0.068284480761395955
-3.2075,0.0710097183732466
-3.2062499999999998,0.07407561068657853
-3.2050000000000001,0.077822812402873143
-3.2037499999999999,0.082591978223611751
-3.2025000000000001,0.088383108148794354
-3.2012499999999999,0.093833583372495588
-3.2000000000000002,0.097921439790271542
-3.19875,0.10132798680508481
-3.1974999999999998,0.10473453381989811
-3.19625,0.10814108083471138
-3.1949999999999998,0.11154762784952468
-3.1937500000000001,0.11393221075989399
-3.1924999999999999,0.11495417486433795
-3.1912500000000001,0.1142728654613753
-3.1899999999999999,0.11291024665544999
-3.1887500000000002,0.11086631844656203
-3.1875,0.10745977143174873
-3.1862499999999998,0.10200929620804747
-3.1850000000000001,0.095196202178420897
-3.1837499999999999,0.087361144044350358
-3.1825000000000001,0.080888704716205101
-3.1812499999999999,0.075438229492503867
-3.1800000000000002,0.0710097183732466
-3.17875,0.068965790164358609
-3.1775000000000002,0.069647099567321263
-3.17625,0.071350373074727913
-3.1749999999999998,0.074416265388059871
-3.1737500000000001,0.078844776507317138
-3.1724999999999999,0.084976561133981054
-3.1712500000000001,0.092130309865088966
-3.1699999999999999,0.099624713297678191
-3.1687500000000002,0.10643780732730476
-3.1675,0.11154762784952468
-3.1662499999999998,0.11461352016285664
-3.165,0.11699810307322595
-3.1637499999999998,0.1176794124761886
-3.1625000000000001,0.11631679367026329
-3.1612499999999999,0.11325090135693133
-3.1600000000000001,0.10882239023767404
-3.1587499999999999,0.10371256971545412
-3.1575000000000002,0.09928405859619685
-3.15625,0.095877511581383579
-3.1549999999999998,0.094174238073976929
-3.1537500000000001,0.093833583372495588
-3.1524999999999999,0.093492928671014275
-3.1512500000000001,0.091449000462126284
-3.1499999999999999,0.088383108148794354
-3.1487500000000002,0.085317215835462396
-3.1475,0.083613942328055746
-3.1462500000000002,0.083273287626574405
-3.145,0.083613942328055746
-3.1437499999999998,0.084635906432499713
-3.1425000000000001,0.087020489342869017
-3.1412499999999999,0.090427036357682317
-3.1400000000000001,0.095877511581383579
-3.1387499999999999,0.10371256971545412
-3.1375000000000002,0.11291024665544999
-3.13625,0.12176726889396453
-3.1349999999999998,0.12789905352062844
-3.13375,0.12960232702803509
-3.1324999999999998,0.12551447061025914
-3.1312500000000001,0.11461352016285664
-3.1299999999999999,0.09928405859619685
-3.1287500000000001,0.082251323522130437
-3.1274999999999999,0.065899897851026651
-3.1262500000000002,0.052273709791773509
-3.125,0.042054068747333667
-3.1237499999999998,0.035240974717707096
-3.1225000000000001,0.031493773001412484
-3.1212499999999999,0.030471808896968489
-3.1200000000000001,0.03081246359844983
-3.1187499999999999,0.032175082404375138
-3.1175000000000002,0.034559665314744442
-3.11625,0.037966212329557714
-3.1150000000000002,0.040010140538445704
-3.11375,0.040010140538445704
-3.1124999999999998,0.038988176434001709
-3.1112500000000001,0.036603593523632405
-3.1099999999999999,0.032856391807337793
-3.1087500000000001,0.027746571285117871
-3.1074999999999999,0.020933477255491301
-3.1062500000000002,0.013779728524383403
-3.105,0.0056040156888315096
-3.1037499999999998,-0.0029123518482016969
-3.1025,-0.011428719385234917
-3.1012499999999998,-0.019263777519305469
-3.1000000000000001,-0.027780145056338676
-3.0987499999999999,-0.036637167294853223
-3.0975000000000001,-0.04685680833929308
-3.0962499999999999,-0.056395139980770274
-3.0950000000000002,-0.064911507517803488
-3.09375,-0.070021328040023423
-3.0924999999999998,-0.07274656565187404
-3.0912500000000001,-0.074109184457799349
-3.0899999999999999,-0.075812457965205998
-3.0887500000000001,-0.078197040875575302
-3.0874999999999999,-0.079219004980019284
-3.0862500000000002,-0.078537695577056629
-3.085,-0.076153112666687325
-3.0837500000000002,-0.072065256248911386
-3.0825,-0.067296090428172778
-3.0812499999999998,-0.063889543413359506
-3.0800000000000001,-0.062186269905952857
-3.0787499999999999,-0.06184561520447153
-3.0775000000000001,-0.062867579308915511
-3.0762499999999999,-0.064570852816322161
-3.0750000000000002,-0.067296090428172778
-3.07375,-0.070021328040023423
-3.0724999999999998,-0.07274656565187404
-3.07125,-0.075471803263724671
-3.0699999999999998,-0.079559659681500611
-3.0687500000000001,-0.084328825502239219
-3.0674999999999999,-0.08943864602445914
-3.0662500000000001,-0.093526502442235079
-3.0649999999999999,-0.096933049457048365
-3.0637500000000002,-0.099998941770380323
-3.0625,-0.10544941699408159
-3.0612499999999998,-0.11362512982963346
-3.0600000000000001,-0.12418542557555465
-3.0587499999999999,-0.13542703072443849
-3.0575000000000001,-0.14530601706739701
-3.0562499999999999,-0.1524597657985049
-3.0550000000000002,-0.15620696751479951
-3.05375,-0.15450369400739289
-3.0525000000000002,-0.14734994527628498
-3.05125,-0.13644899482888248
-3.0499999999999998,-0.1248667349785173
-3.0487500000000001,-0.11430643923259612
-3.0474999999999999,-0.10442745288963759
-3.0462500000000001,-0.094889121248160402
-3.0449999999999999,-0.084328825502239219
-3.0437500000000002,-0.073768529756318035
-3.0425,-0.064570852816322161
-3.0412499999999998,-0.059120377592620905
-3.04,-0.05775775878669559
-3.0387499999999998,-0.060142341697064887
-3.0375000000000001,-0.065933471622247469
-3.0362499999999999,-0.07274656565187404
-3.0350000000000001,-0.079900314382981938
-3.0337499999999999,-0.086713408412608509
-3.0325000000000002,-0.090460610128903121
-3.03125,-0.090460610128903121
-3.0299999999999998,-0.08773537251705249
-3.0287500000000001,-0.082966206696313896
-3.0274999999999999,-0.077175076771131307
-3.0262500000000001,-0.070702637442986077
-3.0249999999999999,-0.065252162219284815
-3.0237500000000002,-0.060142341697064887
-3.0225,-0.055032521174844959
-3.0212500000000002,-0.049582045951143704
-3.02,-0.045153534831886437
-3.0187499999999998,-0.042087642518554479
-3.0175000000000001,-0.04106567841411049
-3.0162499999999999,-0.042768951921517133
-3.0150000000000001,-0.046175498936330418
-3.0137499999999999,-0.051966628861513001
-3.0125000000000002,-0.059461032294102233
-3.01125,-0.068318054532616773
-3.0099999999999998,-0.078197040875575302
-3.00875,-0.089097991322977813
-3.0074999999999998,-0.098976977665936341
-3.0062500000000001,-0.10544941699408159
-3.0049999999999999,-0.10851530930741354
-3.0037500000000001,-0.10885596400889486
-3.0024999999999999,-0.10749334520296955
-3.0012500000000002,-0.10510876229260024
-3,-0.10272417938223095
-2.9987499999999998,-0.10136156057630563
-2.9975000000000001,-0.1010209058748243
-2.9962499999999999,-0.10033959647186165
-2.9950000000000001,-0.099317632367417669
-2.9937499999999999,-0.096933049457048365
-2.9925000000000002,-0.092845193039272425
-2.99125,-0.088076027218533831
-2.9900000000000002,-0.082284897293351242
-2.98875,-0.076493767368168653
-2.9874999999999998,-0.071724601547430059
-2.9862500000000001,-0.067296090428172778
-2.9849999999999999,-0.063208234010396852
-2.9837500000000001,-0.058779722891139571
-2.9824999999999999,-0.053669902368919643
-2.9812500000000002,-0.047878772443737061
-2.98,-0.04310960662299846
-2.9787499999999998,-0.04106567841411049
-2.9775,-0.043450261324479794
-2.9762499999999998,-0.049582045951143704
-2.9750000000000001,-0.059461032294102233
-2.9737499999999999,-0.071043292144467404
-2.9725000000000001,-0.081603587890388588
-2.9712499999999999,-0.091823228934828444
-2.9700000000000002,-0.098636322964455014
-2.96875,-0.10068025117334298
-2.9674999999999998,-0.098636322964455014
-2.9662500000000001,-0.092504538337791098
-2.9649999999999999,-0.084669480203720546
-2.9637500000000001,-0.075812457965205998
-2.9624999999999999,-0.067977399831135446
-2.9612500000000002,-0.061164305801508875
-2.96,-0.055032521174844959
-2.9587500000000002,-0.049241391249662377
-2.9575,-0.043450261324479794
-2.9562499999999998,-0.035955857891890569
-2.9550000000000001,-0.027098835653376022
-2.9537499999999999,-0.015857230504492184
-2.9525000000000001,-0.0039343159526456783
-2.9512499999999999,0.0076479438977194864
-2.9500000000000002,0.015823656733271366
-2.94875,0.021274131956972628
-2.9474999999999998,0.023658714867341918
-2.94625,0.022977405464379264
-2.9449999999999998,0.019230203748084651
-2.9437500000000001,0.013098419121420735
-2.9424999999999999,0.004241396882906201
-2.9412500000000001,-0.0066595535644963094
-2.9399999999999999,-0.018582468116342815
-2.9387500000000002,-0.031527346772633288
-2.9375,-0.044812880130405103
-2.9362499999999998,-0.058439068189658244
-2.9350000000000001,-0.070361982741504736
-2.9337499999999999,-0.080922278487425919
-2.9325000000000001,-0.089097991322977813
-2.9312499999999999,-0.093867157143716407
-2.9300000000000002,-0.095229775949641729
-2.92875,-0.093526502442235079
-2.9275000000000002,-0.090119955427421794
-2.92625,-0.08773537251705249
-2.9249999999999998,-0.086372753711127181
-2.9237500000000001,-0.087054063114089836
-2.9224999999999999,-0.086713408412608509
-2.9212500000000001,-0.083988170800757878
-2.9199999999999999,-0.078197040875575302
-2.9187500000000002,-0.070361982741504736
-2.9175,-0.060142341697064887
-2.9162499999999998,-0.047878772443737061
-2.915,-0.033911929683002592
-2.9137499999999998,-0.019945086922268124
-2.9125000000000001,-0.008362827071902959
-2.9112499999999999,0.00015354046513026132
-2.9100000000000001,0.0045820515843875281
-2.9087499999999999,0.0035600874799435467
-2.9075000000000002,-0.0025716971467203698
-2.90625,-0.010747409982272249
-2.9049999999999998,-0.018241813414861488
-2.9037500000000001,-0.023692288638562736
-2.9024999999999999,-0.025736216847450713
-2.9012500000000001,-0.024032943340044063
-2.8999999999999999,-0.020285741623749451
-2.8987500000000002,-0.016879194608936166
-2.8975,-0.015516575803010857
-2.8962500000000002,-0.016197885205973511
-2.895,-0.018241813414861488
-2.8937499999999998,-0.019263777519305469
-2.8925000000000001,-0.018241813414861488
-2.8912499999999999,-0.016538539907454838
-2.8900000000000001,-0.015516575803010857
-2.8887499999999999,-0.015516575803010857
-2.8875000000000002,-0.016879194608936166
-2.88625,-0.020626396325230778
-2.8849999999999998,-0.027098835653376022
-2.88375,-0.034933893787446574
-2.8824999999999998,-0.043790916025961121
-2.8812500000000001,-0.051625974160031673
-2.8799999999999999,-0.058098413488176917
-2.8787500000000001,-0.062186269905952857
-2.8774999999999999,-0.06423019811484082
-2.8762500000000002,-0.063889543413359506
-2.875,-0.06184561520447153
-2.8737499999999998,-0.058439068189658244
-2.8725000000000001,-0.05571383057780762
-2.8712499999999999,-0.051625974160031673
-2.8700000000000001,-0.044472225428923776
-2.8687499999999999,-0.035615203190409242
-2.8675000000000002,-0.026417526250413367
-2.86625,-0.01756050401189882
-2.8650000000000002,-0.010406755280790922
-2.86375,-0.0052969347585710008
-2.8624999999999998,-0.0035936612511643512
-2.8612500000000001,-0.0046156253556083465
-2.8599999999999999,-0.0073408629674589637
-2.8587500000000001,-0.012450683489678899
-2.8574999999999999,-0.020967051026712105
-2.8562500000000002,-0.032549310877077284
-2.855,-0.046516153637811745
-2.8537499999999998,-0.061504960502990202
-2.8525,-0.074109184457799349
-2.8512499999999998,-0.083306861397795223
-2.8500000000000001,-0.088757336621496485
-2.8487499999999999,-0.090460610128903121
-2.8475000000000001,-0.08943864602445914
-2.8462499999999999,-0.086372753711127181
-2.8450000000000002,-0.080581623785944606
-2.84375,-0.072405910950392713
-2.8424999999999998,-0.062867579308915511
-2.8412500000000001,-0.052988592965956989
-2.8399999999999999,-0.044131570727442448
-2.8387500000000001,-0.036296512593371896
-2.8374999999999999,-0.029824073265226653
-2.8362500000000002,-0.024373598041525391
-2.835,-0.020626396325230778
-2.8337500000000002,-0.017219849310417493
-2.8325,-0.013813302295604207
-2.8312499999999998,-0.0097254458778282676
-2.8300000000000001,-0.0039343159526456783
-2.8287499999999999,0.0015161592710555699
-2.8275000000000001,0.0059446703903128367
-2.8262499999999999,0.0090105627036447949
-2.8250000000000002,0.010373181509570117
-2.82375,0.01003252680808879
-2.8224999999999998,0.0086699080021634678
-2.82125,0.0076479438977194864
-2.8199999999999998,0.0083292533006821406
-2.8187500000000001,0.01241710971845808
-2.8174999999999999,0.018889549046603324
-2.8162500000000001,0.025361988374748567
-2.8149999999999999,0.029449844792524521
-2.8137500000000002,0.030131154195487175
-2.8125,0.02740591658363653
-2.8112499999999998,0.022296096061416609
-2.8100000000000001,0.016164311434752693
-2.8087499999999999,0.0096918721066074492
-2.8075000000000001,0.0015161592710555699
-2.8062499999999999,-0.0063188988630149823
-2.8050000000000002,-0.014153956997085534
-2.80375,-0.020967051026712105
-2.8025000000000002,-0.026758180951894694
-2.80125,-0.032549310877077284
-2.7999999999999998,-0.039362404906703848
-2.7987500000000001,-0.04685680833929308
-2.7974999999999999,-0.054010557070400977
-2.7962500000000001,-0.060823651100027548
-2.7949999999999999,-0.06627412632372881
-2.7937500000000002,-0.070021328040023423
-2.7925,-0.072065256248911386
-2.7912499999999998,-0.073087220353355367
-2.79,-0.073427875054836694
-2.7887499999999998,-0.073768529756318035
-2.7875000000000001,-0.074109184457799349
-2.7862499999999999,-0.073427875054836694
-2.7850000000000001,-0.072405910950392713
-2.7837499999999999,-0.072065256248911386
-2.7825000000000002,-0.072405910950392713
-2.78125,-0.072405910950392713
-2.7799999999999998,-0.072405910950392713
-2.7787500000000001,-0.071043292144467404
-2.7774999999999999,-0.068318054532616773
-2.7762500000000001,-0.065252162219284815
-2.7749999999999999,-0.060142341697064887
-2.7737500000000002,-0.051285319458550346
-2.7725,-0.040043714309666509
-2.7712500000000002,-0.028802109160782671
-2.77,-0.018923122817824142
-2.7687499999999998,-0.01108806468375359
-2.7675000000000001,-0.0052969347585710008
-2.7662499999999999,-0.0015497330422763883
-2.7650000000000001,0.00049419516661158847
-2.7637499999999999,-0.00052776893783239298
-2.7625000000000002,-0.0042749706541270194
-2.76125,-0.010066100579309595
-2.7599999999999998,-0.016538539907454838
-2.75875,-0.020967051026712105
-2.7574999999999998,-0.023010979235600082
-2.7562500000000001,-0.024032943340044063
-2.7549999999999999,-0.026417526250413367
-2.7537500000000001,-0.030846037369670634
-2.7524999999999999,-0.036977821996334551
-2.7512500000000002,-0.045153534831886437
-2.75,-0.055032521174844959
-2.7487499999999998,-0.064570852816322161
-2.7475000000000001,-0.072405910950392713
-2.7462499999999999,-0.077515731472612648
-2.7450000000000001,-0.079219004980019284
-2.7437499999999999,-0.077175076771131307
-2.7425000000000002,-0.071724601547430059
-2.74125,-0.062526924607434198
-2.7400000000000002,-0.050263355354106358
-2.73875,-0.036296512593371896
-2.7374999999999998,-0.021307705728193432
-2.7362500000000001,-0.0073408629674589637
-2.7349999999999999,0.0062853250917941639
-2.7337500000000001,0.018548894345121997
-2.7324999999999999,0.029449844792524521
-2.7312500000000002,0.038306867031039055
-2.73,0.04409799695622163
-2.7287499999999998,0.047163889269553588
-2.7275,0.047504543971034929
-2.7262499999999998,0.044779306359184284
-2.7250000000000001,0.039669485836964363
-2.7237499999999999,0.031834427702893797
-2.7225000000000001,0.023658714867341918
-2.7212499999999999,0.015483002031790039
-2.7200000000000002,0.0086699080021634678
-2.71875,0.0035600874799435467
-2.7174999999999998,0.00083484986809291561
-2.7162500000000001,-0.00086842363931373401
-2.7149999999999999,-0.0022310424452390426
-2.7137500000000001,-0.0025716971467203698
-2.7124999999999999,-0.0015497330422763883
-2.7112500000000002,0.0015161592710555699
-2.71,0.0073072891962381592
-2.7087500000000002,0.015483002031790039
-2.7075,0.025702643076229909
-2.7062499999999998,0.038647521732520368
-2.7050000000000001,0.052955019194736164
-2.7037499999999999,0.067262516656951959
-2.7025000000000001,0.080207395313242447
-2.7012499999999999,0.09076769105916363
-2.7000000000000002,0.097240130387308887
-2.69875,0.098602749193234196
-2.6974999999999998,0.094174238073976929
-2.69625,0.082591978223611751
-2.6949999999999998,0.063855969642138688
-2.6937500000000001,0.037966212329557714
-2.6924999999999999,0.0066259797932755049
-2.6912500000000001,-0.029142763862263998
-2.6899999999999999,-0.067977399831135446
-2.6887500000000002,-0.10579007169556291
-2.6875,-0.13951488714221444
-2.6862499999999998,-0.16778922736516469
-2.6850000000000001,-0.19027243766293239
-2.6837499999999999,-0.20696451803551746
-2.6825000000000001,-0.21990939669180795
-2.6812499999999999,-0.23081034713921048
-2.6800000000000002,-0.23966736937772501
-2.67875,-0.24750242751179558
-2.6775000000000002,-0.25329355743697812
-2.67625,-0.2584033779591981
-2.6749999999999998,-0.26215057967549271
-2.6737500000000001,-0.26453516258586196
-2.6724999999999999,-0.26521647198882464
-2.6712500000000001,-0.26215057967549271
-2.6699999999999999,-0.2549968309443848
-2.6687500000000002,-0.24443653519846362
-2.6675,-0.23012903773624782
-2.6662499999999998,-0.21139302915477476
-2.665,-0.18959112825996971
-2.6637499999999998,-0.16642660855923938
-2.6625000000000001,-0.14326208885850905
-2.6612499999999999,-0.12214149736666667
-2.6600000000000001,-0.10408679818815626
-2.6587499999999999,-0.089097991322977813
-2.6575000000000002,-0.075131148562243344
-2.65625,-0.062526924607434198
-2.6549999999999998,-0.050944664757069019
-2.6537500000000001,-0.040384369011147836
-2.6524999999999999,-0.030846037369670634
-2.6512500000000001,-0.023010979235600082
-2.6499999999999999,-0.01756050401189882
-2.6487500000000002,-0.015516575803010857
-2.6475,-0.016197885205973511
-2.6462500000000002,-0.016879194608936166
-2.645,-0.016197885205973511
-2.6437499999999998,-0.012791338191160226
-2.6425000000000001,-0.0066595535644963094
-2.6412499999999999,-0.00018711423635106583
-2.6400000000000001,0.0049227062858688553
-2.6387499999999999,0.0069666344947568321
-2.6375000000000002,0.0069666344947568321
-2.63625,0.0056040156888315096
-2.6349999999999998,0.004241396882906201
-2.63375,0.0021974686740182242
-2.6324999999999998,0.00015354046513026132
-2.6312500000000001,-0.0022310424452390426
-2.6299999999999999,-0.0042749706541270194
-2.6287500000000001,-0.0059782441615336551
-2.6274999999999999,-0.0073408629674589637
-2.6262500000000002,-0.008362827071902959
-2.625,-0.0097254458778282676
-2.6237499999999998,-0.0093847911763469405
-2.6225000000000001,-0.0066595535644963094
-2.6212499999999999,-0.0015497330422763883
-2.6200000000000001,0.0049227062858688553
-2.6187499999999999,0.012076455016976753
-2.6175000000000002,0.018889549046603324
-2.61625,0.024340024270304586
-2.6150000000000002,0.027746571285117871
-2.61375,0.028427880688080526
-2.6124999999999998,0.028087225986599185
-2.6112500000000001,0.028087225986599185
-2.6099999999999999,0.028768535389561839
-2.6087500000000001,0.028768535389561839
-2.6074999999999999,0.028427880688080526
-2.6062500000000002,0.028768535389561839
-2.605,0.031153118299931143
-2.6037499999999998,0.035922284120669751
-2.6025,0.042054068747333667
-2.6012499999999998,0.048185853373997584
-2.6000000000000001,0.051933055090292196
-2.5987499999999999,0.051933055090292196
-2.5975000000000001,0.047504543971034929
-2.5962499999999999,0.039328831135483022
-2.5950000000000002,0.027746571285117871
-2.59375,0.014801692628827384
-2.5924999999999998,0.0035600874799435467
-2.5912500000000001,-0.0039343159526456783
-2.5899999999999999,-0.0080221723704216319
-2.5887500000000001,-0.0093847911763469405
-2.5874999999999999,-0.0090441364748656133
-2.5862500000000002,-0.0080221723704216319
-2.585,-0.0063188988630149823
-2.5837500000000002,-0.0035936612511643512
-2.5825,0.00015354046513026132
-2.5812499999999998,0.0052633609873501824
-2.5800000000000001,0.011054490912532772
-2.5787499999999999,0.017526930240678015
-2.5775000000000001,0.023658714867341918
-2.5762499999999999,0.03081246359844983
-2.5750000000000002,0.038647521732520368
-2.57375,0.047163889269553588
-2.5724999999999998,0.055680256806586809
-2.57125,0.062834005537694693
-2.5699999999999998,0.068284480761395955
-2.5687500000000001,0.070669063671765259
-2.5674999999999999,0.070328408970283918
-2.5662500000000001,0.069647099567321263
-2.5649999999999999,0.06930644486583995
-2.5637500000000002,0.067943826059914642
-2.5625,0.065218588448063997
-2.5612499999999998,0.06079007732880673
-2.5600000000000001,0.055680256806586809
-2.5587499999999999,0.049889126881404205
-2.5575000000000001,0.044438651657702971
-2.5562499999999999,0.039669485836964363
-2.5550000000000002,0.036262938822151869
-2.55375,0.035922284120669751
-2.5525000000000002,0.039328831135482245
-2.55125,0.04580127046362828
-2.5499999999999998,0.054317638000663589
-2.5487500000000001,0.063515314940657347
-2.5474999999999999,0.073734955985097217
-2.5462500000000001,0.082591978223611751
-2.5449999999999999,0.088383108148794354
-2.5437500000000002,0.089745726954719357
-2.5425,0.087361144044350358
-2.5412499999999998,0.08225132352212873
-2.54,0.074756920089541212
-2.5387499999999998,0.066921861955468703
-2.5375000000000001,0.058405494418437426
-2.5362499999999999,0.050229781582885547
-2.5350000000000001,0.043757342254740317
-2.5337499999999999,0.040350795239927018
-2.5325000000000002,0.040350795239927018
-2.53125,0.042735378150296321
-2.5299999999999998,0.046482579866591628
-2.5287500000000001,0.049548472179922892
-2.5274999999999999,0.051592400388810855
-2.5262500000000001,0.052955019194736164
-2.5249999999999999,0.053295673896217505
-2.5237500000000002,0.052614364493255003
-2.5225,0.051592400388810855
-2.5212500000000002,0.05193305509029212
-2.52,0.053295673896217505
-2.5187499999999998,0.055339602105106085
-2.5175000000000001,0.058064839716956113
-2.5162499999999999,0.061130732030288071
-2.5150000000000001,0.064537279045101342
-2.5137499999999999,0.068965790164358609
-2.5125000000000002,0.074416265388058636
-2.51125,0.081570014119167783
-2.5099999999999998,0.090086381656202918
-2.50875,0.098602749193234196
-2.5074999999999998,0.10745977143175089
-2.5062500000000001,0.11699810307322595
-2.5049999999999999,0.12585512531174048
-2.5037500000000001,0.13505280225173635
-2.5024999999999999,0.14322851508728823
-2.5012500000000002,0.14970095441543199
-2.5,0.15378881083320939
-2.4987499999999998,0.15447012023617152
-2.4975000000000001,0.15208553732580277
-2.4962499999999999,0.14595375269913885
-2.4950000000000001,0.13573411165469901
-2.4937499999999999,0.12142661419248321
-2.4925000000000002,0.1054158432228644
-2.49125,0.09076769105916363
-2.4900000000000002,0.077482157701394855
-2.48875,0.066240552552507992
-2.4874999999999998,0.057383530313991911
-2.4862500000000001,0.050570436284366888
-2.4849999999999999,0.044438651657702971
-2.4837500000000001,0.038306867031039055
-2.4824999999999999,0.033197046508819134
-2.4812500000000002,0.030131154195487873
-2.48,0.029449844792524521
-2.4787499999999998,0.029449844792524132
-2.4775,0.027746571285117871
-2.4762499999999998,0.022636750762895844
-2.4750000000000001,0.013439073822902076
-2.4737499999999999,-0.00018711423635106583
-2.4725000000000001,-0.014494611698566862
-2.4712499999999999,-0.02607687154893204
-2.4700000000000002,-0.032889965578557064
-2.46875,-0.035615203190409242
-2.4674999999999998,-0.035615203190409089
-2.4662500000000001,-0.034933893787446574
-2.4649999999999999,-0.033571274981521265
-2.4637500000000001,-0.032208656175595957
-2.4624999999999999,-0.031868001474114616
-2.4612500000000002,-0.031868001474114616
-2.46,-0.031186692071151961
-2.4587500000000002,-0.030164727966708212
-2.4575,-0.028120799757820003
-2.4562499999999998,-0.025736216847450172
-2.4550000000000001,-0.023351633937081409
-2.4537499999999999,-0.021307705728193432
-2.4525000000000001,-0.019604432220786797
-2.4512499999999999,-0.019604432220786797
-2.4500000000000002,-0.021648360429674308
-2.44875,-0.027098835653376022
-2.4474999999999998,-0.036637167294856478
-2.44625,-0.050944664757069019
-2.4449999999999998,-0.0696806733385468
-2.4437500000000001,-0.090460610128903121
-2.4424999999999999,-0.11124054691926416
-2.4412500000000001,-0.12895459139629326
-2.4399999999999999,-0.14394339826147171
-2.4387500000000002,-0.15552565811183688
-2.4375,-0.16472333505183273
-2.4362499999999998,-0.17051446497701533
-2.4350000000000001,-0.17289904788738464
-2.4337499999999999,-0.17187708378294064
-2.4325000000000001,-0.16710791796220203
-2.4312499999999999,-0.15859155042516881
-2.4300000000000002,-0.14837190938072897
-2.42875,-0.13713030423184513
-2.4275000000000002,-0.1282732819933306
-2.42625,-0.12282280676962934
-2.4249999999999998,-0.12111953326222269
-2.4237500000000001,-0.12146018796370402
-2.4224999999999999,-0.12111953326222269
-2.4212500000000001,-0.12111953326222269
-2.4199999999999999,-0.12214149736666667
-2.4187500000000002,-0.1248667349785173
-2.4175,-0.12861393669481191
-2.4162499999999998,-0.13167982900814387
-2.415,-0.13406441191851318
-2.4137499999999998,-0.13508637602295714
-2.4125000000000001,-0.13542703072443849
-2.4112499999999999,-0.13576768542591983
-2.4100000000000001,-0.13644899482888248
-2.4087499999999999,-0.13713030423184513
-2.4075000000000002,-0.13747095893332645
-2.40625,-0.13815226833628913
-2.4049999999999998,-0.13985554184369575
-2.4037500000000001,-0.1415588153511024
-2.4024999999999999,-0.1415588153511024
-2.4012500000000001,-0.13985554184369575
-2.3999999999999999,-0.13781161363480779
-2.3987500000000002,-0.13713030423184513
-2.3975,-0.13849292303777044
-2.3962500000000002,-0.14121816064962106
-2.395,-0.14428405296295302
-2.3937499999999998,-0.14769059997776632
-2.3925000000000001,-0.15109714699257959
-2.3912499999999999,-0.15348172990294889
-2.3900000000000001,-0.1548443487088742
-2.3887499999999999,-0.15518500341035554
-2.3875000000000002,-0.15450369400739289
-2.38625,-0.15348172990294889
-2.3849999999999998,-0.15211911109702358
-2.38375,-0.15007518288813562
-2.3824999999999998,-0.14530601706739701
-2.3812500000000001,-0.13883357773925176
-2.3799999999999999,-0.13167982900814387
-2.3787500000000001,-0.1248667349785173
-2.3774999999999999,-0.11839429565037206
-2.3762500000000002,-0.11192185632222681
-2.375,-0.10647138109852557
-2.3737499999999998,-0.10272417938223095
-2.3725000000000001,-0.10170221527778696
-2.3712499999999999,-0.10306483408371228
-2.3700000000000001,-0.10579007169556291
-2.3687499999999999,-0.10783399990445088
-2.3675000000000002,-0.10885596400889486
-2.36625,-0.10987792811333885
-2.3650000000000002,-0.11158120162074549
-2.36375,-0.11362512982963346
-2.3624999999999998,-0.11600971274000277
-2.3612500000000001,-0.1177129862474094
-2.3599999999999999,-0.1177129862474094
-2.3587500000000001,-0.11566905803852143
-2.3574999999999999,-0.11158120162074549
-2.3562500000000002,-0.10851530930741354
-2.355,-0.10613072639704424
-2.3537499999999998,-0.10306483408371228
-2.3525,-0.10033959647186165
-2.3512499999999998,-0.098636322964455014
-2.3500000000000001,-0.098295668262973687
-2.3487499999999999,-0.098976977665936341
-2.3475000000000001,-0.098976977665936341
-2.3462499999999999,-0.097273704158529692
-2.3450000000000002,-0.095229775949641729
-2.34375,-0.093526502442235079
-2.3424999999999998,-0.092504538337791098
-2.3412500000000001,-0.092504538337791098
-2.3399999999999999,-0.093526502442235079
-2.3387500000000001,-0.094889121248160402
-2.3374999999999999,-0.097273704158529692
-2.3362500000000002,-0.099998941770380323
-2.335,-0.10170221527778696
-2.3337500000000002,-0.10306483408371228
-2.3325,-0.10544941699408159
-2.3312499999999998,-0.10885596400889486
-2.3300000000000001,-0.11260316572518948
-2.3287499999999999,-0.11600971274000277
-2.3275000000000001,-0.1177129862474094
-2.3262499999999999,-0.11737233154592808
-2.3250000000000002,-0.1153284033370401
-2.32375,-0.11192185632222681
-2.3224999999999998,-0.10715269050148822
-2.32125,-0.1020428699792683
-2.3199999999999998,-0.096933049457048365
-2.3187500000000001,-0.091482574233347103
-2.3174999999999999,-0.085691444308164527
-2.3162500000000001,-0.077515731472612648
-2.3149999999999999,-0.070021328040023423
-2.3137500000000002,-0.063889543413359506
-2.3125,-0.06184561520447153
-2.3112499999999998,-0.063548888711878165
-2.3100000000000001,-0.067977399831135446
-2.3087499999999999,-0.073768529756318035
-2.3075000000000001,-0.078537695577056629
-2.3062499999999999,-0.082625551994832569
-2.3050000000000002,-0.084669480203720546
-2.30375,-0.084669480203720546
-2.3025000000000002,-0.082966206696313896
-2.30125,-0.080240969084463265
-2.2999999999999998,-0.076153112666687325
-2.2987500000000001,-0.071043292144467404
-2.2974999999999999,-0.063208234010396852
-2.2962500000000001,-0.051966628861513001
-2.2949999999999999,-0.038340440802259866
-2.2937500000000002,-0.025395562145969386
-2.2925,-0.016197885205973511
-2.2912499999999998,-0.012450683489678899
-2.29,-0.014494611698566862
-2.2887499999999998,-0.021989015131156101
-2.2875000000000001,-0.034593239085965247
-2.2862499999999999,-0.051966628861513001
-2.2850000000000001,-0.072405910950392713
-2.2837499999999999,-0.093867157143716407
-2.2825000000000002,-0.11260316572518948
-2.28125,-0.1282732819933306
-2.2799999999999998,-0.1415588153511024
-2.2787500000000001,-0.15177845639554227
-2.2774999999999999,-0.15756958632072485
-2.2762500000000001,-0.16029482393257546
-2.2749999999999999,-0.16097613333553812
-2.2737500000000002,-0.16165744273850077
-2.2725,-0.16199809743998211
-2.2712500000000002,-0.16029482393257546
-2.27,-0.1558663128133182
-2.2687499999999998,-0.14837190938072897
-2.2675000000000001,-0.13713030423184513
-2.2662499999999999,-0.12418542557555465
-2.2650000000000001,-0.11294382042667081
-2.2637499999999999,-0.10510876229260024
-2.2625000000000002,-0.1010209058748243
-2.26125,-0.10068025117334298
-2.2599999999999998,-0.10272417938223095
-2.25875,-0.10579007169556291
-2.2574999999999998,-0.1091966187103762
-2.2562500000000001,-0.11226251102370816
-2.2549999999999999,-0.11362512982963346
-2.2537500000000001,-0.11226251102370816
-2.2524999999999999,-0.1081746546059322
-2.2512500000000002,-0.10136156057630563
-2.25,-0.092504538337791098
-2.2487499999999998,-0.081603587890388588
-2.2475000000000001,-0.069680673338542082
-2.2462499999999999,-0.058779722891139571
-2.2450000000000001,-0.049582045951143704
-2.2437499999999999,-0.043450261324479794
-2.2425000000000002,-0.040043714309666509
-2.24125,-0.038340440802259866
-2.2400000000000002,-0.037659131399297205
-2.23875,-0.038340440802259866
-2.2374999999999998,-0.040725023712629163
-2.2362500000000001,-0.045153534831886437
-2.2349999999999999,-0.051966628861513001
-2.2337500000000001,-0.060823651100027548
-2.2324999999999999,-0.070702637442986077
-2.2312500000000002,-0.081944242591869915
-2.23,-0.094207811845197734
-2.2287499999999998,-0.10544941699408159
-2.2275,-0.1153284033370401
-2.2262499999999998,-0.12282280676962934
-2.2250000000000001,-0.1282732819933306
-2.2237499999999999,-0.13099851960518122
-2.2225000000000001,-0.13167982900814387
-2.2212499999999999,-0.13133917430666253
-2.2200000000000002,-0.12929524609777457
-2.21875,-0.12520738967999864
-2.2174999999999998,-0.11839429565037206
-2.2162500000000001,-0.10953727341185752
-2.2149999999999999,-0.10068025117334298
-2.2137500000000001,-0.092504538337791098
-2.2124999999999999,-0.086372753711127181
-2.2112500000000002,-0.083306861397795223
-2.21,-0.08364751609927655
-2.2087500000000002,-0.088416681920015158
-2.2075,-0.096933049457048365
-2.2062499999999998,-0.10510876229260024
-2.2050000000000001,-0.11158120162074549
-2.2037499999999999,-0.11600971274000277
-2.2025000000000001,-0.11703167684444675
-2.2012499999999999,-0.11498774863555877
-2.2000000000000002,-0.10987792811333885
-2.19875,-0.10136156057630563
-2.1974999999999998,-0.090801264830384448
-2.19625,-0.079559659681500611
-2.1949999999999998,-0.070361982741504736
-2.1937500000000001,-0.063548888711878165
-2.1924999999999999,-0.059461032294102233
-2.1912500000000001,-0.058439068189658244
-2.1899999999999999,-0.059461032294102233
-2.1887500000000002,-0.062186269905952857
-2.1875,-0.065252162219284815
-2.1862499999999998,-0.067977399831135446
-2.1850000000000001,-0.069340018637060755
-2.1837499999999999,-0.069340018637060755
-2.1825000000000001,-0.068999363935579427
-2.1812499999999999,-0.0686587092340981
-2.1800000000000002,-0.067977399831135446
-2.17875,-0.067636745129654119
-2.1775000000000002,-0.067977399831135446
-2.17625,-0.068999363935579427
-2.1749999999999998,-0.071383946845948731
-2.1737500000000001,-0.073427875054836694
-2.1724999999999999,-0.074790493860762017
-2.1712500000000001,-0.074790493860762017
-2.1699999999999999,-0.073087220353355367
-2.1687500000000002,-0.071724601547430059
-2.1675,-0.070361982741504736
-2.1662499999999998,-0.069340018637060755
-2.165,-0.068318054532616773
-2.1637499999999998,-0.066955435726691465
-2.1625000000000001,-0.065933471622247469
-2.1612499999999999,-0.06423019811484082
-2.1600000000000001,-0.06184561520447153
-2.1587499999999999,-0.058779722891139571
-2.1575000000000002,-0.056054485279288947
-2.15625,-0.055032521174844959
-2.1549999999999998,-0.05571383057780762
-2.1537500000000001,-0.056395139980770274
-2.1524999999999999,-0.056395139980770274
-2.1512500000000001,-0.056395139980770274
-2.1499999999999999,-0.057076449383732929
-2.1487500000000002,-0.058439068189658244
-2.1475,-0.059120377592620905
-2.1462500000000002,-0.060482996398546214
-2.145,-0.061504960502990202
-2.1437499999999998,-0.06184561520447153
-2.1425000000000001,-0.060142341697064887
-2.1412499999999999,-0.05775775878669559
-2.1400000000000001,-0.054010557070400977
-2.1387499999999999,-0.048900736548181049
-2.1375000000000002,-0.04310960662299846
-2.13625,-0.035955857891890569
-2.1349999999999998,-0.03016472796670798
-2.13375,-0.02607687154893204
-2.1324999999999998,-0.024714252743006718
-2.1312500000000001,-0.027780145056338676
-2.1299999999999999,-0.033911929683002592
-2.1287500000000001,-0.043450261324479794
-2.1274999999999999,-0.052988592965956989
-2.1262500000000002,-0.060823651100027548
-2.125,-0.064911507517803488
-2.1237499999999998,-0.065933471622247469
-2.1225000000000001,-0.064570852816322161
-2.1212499999999999,-0.06184561520447153
-2.1200000000000001,-0.059461032294102233
-2.1187499999999999,-0.058779722891139571
-2.1175000000000002,-0.061504960502990202
-2.11625,-0.067296090428172778
-2.1150000000000002,-0.07444983915928069
-2.11375,-0.082966206696313896
-2.1124999999999998,-0.092163883636309771
-2.1112500000000001,-0.1010209058748243
-2.1099999999999999,-0.1091966187103762
-2.1087500000000001,-0.1163503674414841
-2.1074999999999999,-0.12111953326222269
-2.1062500000000002,-0.12452608027703597
-2.105,-0.12759197259036792
-2.1037499999999998,-0.13065786490369988
-2.1025,-0.13372375721703184
-2.1012499999999998,-0.13610834012740114
-2.1000000000000001,-0.13576768542591983
-2.0987499999999999,-0.13304244781406918
-2.0975000000000001,-0.12725131788888661
-2.0962499999999999,-0.11907560505333473
-2.0950000000000002,-0.10885596400889486
-2.09375,-0.098636322964455014
-2.0924999999999998,-0.088416681920015158
-2.0912500000000001,-0.079219004980019284
-2.0899999999999999,-0.071043292144467404
-2.0887500000000001,-0.064570852816322161
-2.0874999999999999,-0.05980168699558356
-2.0862500000000002,-0.056395139980770274
-2.085,-0.054691866473363632
-2.0837500000000002,-0.053669902368919643
-2.0825,-0.052988592965956989
-2.0812499999999998,-0.052647938264475662
-2.0800000000000001,-0.053329247667438316
-2.0787499999999999,-0.054691866473363632
-2.0775000000000001,-0.056054485279288947
-2.0762499999999999,-0.058098413488176917
-2.0750000000000002,-0.058779722891139571
-2.07375,-0.058098413488176917
-2.0724999999999998,-0.056735794682251602
-2.07125,-0.053329247667438316
-2.0699999999999998,-0.048560081846699722
-2.0687500000000001,-0.043450261324479794
-2.0674999999999999,-0.036637167294853223
-2.0662500000000001,-0.03016472796670798
-2.0649999999999999,-0.023010979235600082
-2.0637500000000002,-0.015857230504492184
-2.0625,-0.010066100579309595
-2.0612499999999998,-0.0063188988630149823
-2.0600000000000001,-0.005637589460052328
-2.0587499999999999,-0.0076815176689403047
-2.0575000000000001,-0.012110028788197572
-2.0562499999999999,-0.016879194608936166
-2.0550000000000002,-0.019263777519305469
-2.05375,-0.017901158713380147
-2.0525000000000002,-0.012110028788197572
-2.05125,-0.0042749706541270194
-2.0499999999999998,0.0035600874799435467
-2.0487500000000001,0.0096918721066074492
-2.0474999999999999,0.013098419121420735
-2.0462500000000001,0.015142347330308711
-2.0449999999999999,0.016845620837715347
-2.0437500000000002,0.019911513151047305
-2.0425,0.023999369568823259
-2.0412499999999998,0.02740591658363653
-2.04,0.028768535389561839
-2.0387499999999998,0.028087225986599185
-2.0375000000000001,0.026383952479192563
-2.0362499999999999,0.025021333673267226
-2.0350000000000001,0.026043297777711222
-2.0337499999999999,0.030131154195487175
-2.0325000000000002,0.036262938822151092
-2.03125,0.04239472344881498
-2.0299999999999998,0.04580127046362828
-2.0287500000000001,0.044779306359184284
-2.0274999999999999,0.038647521732520368
-2.0262500000000001,0.02740591658363653
-2.0249999999999999,0.012076455016976753
-2.0237500000000002,-0.0080221723704216319
-2.0225,-0.032208656175595957
-2.0212500000000002,-0.061164305801508875
-2.02,-0.094548466546679061
-2.0187499999999998,-0.12997655550073722
-2.0175000000000001,-0.16574529915627673
-2.0162499999999999,-0.19947011460292824
-2.0150000000000001,-0.22910707363180383
-2.0137499999999999,-0.2526122480340155
-2.0125000000000002,-0.26930432840660057
-2.01125,-0.27816135064511516
-2.0099999999999998,-0.27850200534659647
-2.00875,-0.27134825661548856
-2.0074999999999998,-0.25806272325771673
-2.0062500000000001,-0.24102998818365032
-2.0049999999999999,-0.22195332490069591
-2.0037500000000001,-0.2025360069162602
-2.0024999999999999,-0.18379999833478713
-2.0012500000000002,-0.16540464445479541
-2,-0.14871256408221029
-1.99875,-0.13338310251555052
-1.9975000000000001,-0.12146018796370402
-1.9962500000000001,-0.11498774863555877
-1.9950000000000001,-0.11294382042667081
-1.9937499999999999,-0.11464709393407745
-1.9924999999999999,-0.1177129862474094
-1.99125,-0.11975691445629738
-1.99,-0.11907560505333473
-1.98875,-0.11464709393407745
-1.9875,-0.10647138109852557
-1.9862500000000001,-0.096592394755567038
-1.9850000000000001,-0.086372753711127181
-1.9837499999999999,-0.075812457965205998
-1.9824999999999999,-0.065592816920766142
-1.98125,-0.055373175876326286
-1.98,-0.045494189533367764
-1.97875,-0.035955857891890569
-1.9775,-0.027098835653376022
-1.9762500000000001,-0.019263777519305469
-1.9750000000000001,-0.012450683489678899
-1.9737499999999999,-0.0076815176689403047
-1.9724999999999999,-0.0049562800570896737
-1.9712499999999999,-0.0042749706541270194
-1.97,-0.0052969347585710008
-1.96875,-0.0066595535644963094
-1.9675,-0.008362827071902959
-1.9662500000000001,-0.010406755280790922
-1.9650000000000001,-0.011428719385234917
-1.9637500000000001,-0.011428719385234917
-1.9624999999999999,-0.010406755280790922
-1.9612499999999999,-0.0090441364748656133
-1.96,-0.0076815176689403047
-1.95875,-0.0066595535644963094
-1.9575,-0.0039343159526456783
-1.95625,0.00049419516661158847
-1.9550000000000001,0.0059446703903128367
-1.9537500000000001,0.0096918721066074492
-1.9524999999999999,0.01003252680808879
-1.9512499999999999,0.0079885985992008135
-1.95,0.0049227062858688553
-1.94875,0.0021974686740182242
-1.9475,0.0011755045695742428
-1.94625,0.0011755045695742428
-1.9450000000000001,0.0028787780769808785
-1.9437500000000001,0.0056040156888315096
-1.9424999999999999,0.0076479438977194864
-1.9412499999999999,0.0083292533006821406
-1.9399999999999999,0.0083292533006821406
-1.93875,0.0079885985992008135
-1.9375,0.0073072891962381592
-1.93625,0.0083292533006821406
-1.9350000000000001,0.012076455016976753
-1.9337500000000001,0.016845620837715347
-1.9325000000000001,0.022636750762897936
-1.9312499999999999,0.02740591658363653
-1.9299999999999999,0.03081246359844983
-1.92875,0.032175082404375138
-1.9275,0.031153118299931143
-1.92625,0.028427880688080526
-1.925,0.025361988374748567
-1.9237500000000001,0.022636750762897936
-1.9225000000000001,0.020933477255491301
-1.9212499999999999,0.020592822554009974
-1.9199999999999999,0.022296096061416609
-1.91875,0.025361988374748567
-1.9175,0.02910919009104318
-1.91625,0.032515737105856451
-1.915,0.034900320016225755
-1.9137500000000001,0.036262938822151092
-1.9125000000000001,0.035922284120669751
-1.9112499999999999,0.034559665314744442
-1.9099999999999999,0.034559665314744442
-1.9087499999999999,0.036262938822151092
-1.9075,0.040010140538445704
-1.90625,0.04580127046362828
-1.905,0.053976983299180159
-1.9037500000000001,0.062152696134732038
-1.9025000000000001,0.06930644486583995
-1.9012500000000001,0.074416265388059871
-1.8999999999999999,0.077822812402873143
-1.8987499999999999,0.080548050014723788
-1.8975,0.083613942328055746
-1.89625,0.087361144044350358
-1.895,0.09076769105916363
-1.89375,0.09247096456657028
-1.8925000000000001,0.09247096456657028
-1.8912500000000001,0.09076769105916363
-1.8899999999999999,0.088383108148794354
-1.8887499999999999,0.087701798745831672
-1.8875,0.088723762850275667
-1.88625,0.091789655163607625
-1.885,0.095877511581383579
-1.88375,0.098602749193234196
-1.8825000000000001,0.098943403894715537
-1.8812500000000001,0.095536856879902238
-1.8799999999999999,0.089064417551757008
-1.8787499999999999,0.080888704716205101
-1.8774999999999999,0.072712991880653222
-1.87625,0.065559243149545338
-1.875,0.06079007732880673
-1.87375,0.05908680382140008
-1.8725000000000001,0.061471386731769384
-1.8712500000000001,0.065559243149545338
-1.8700000000000001,0.070328408970283918
-1.8687499999999999,0.075438229492503867
-1.8674999999999999,0.080888704716205101
-1.86625,0.08599852523842505
-1.865,0.090427036357682317
-1.86375,0.09247096456657028
-1.8625,0.09247096456657028
-1.8612500000000001,0.089745726954719662
-1.8600000000000001,0.085317215835462396
-1.8587499999999999,0.079526085910279792
-1.8574999999999999,0.07407561068657853
-1.85625,0.0710097183732466
-1.855,0.0710097183732466
-1.85375,0.073734955985097217
-1.8525,0.079185431208798479
-1.8512500000000001,0.086339179939906363
-1.8500000000000001,0.094514892775458242
-1.8487499999999999,0.1033719150139728
-1.8474999999999999,0.11256959195396865
-1.8462499999999999,0.11972334068507656
-1.845,0.12312988769988983
-1.84375,0.12278923299840852
-1.8425,0.11972334068507656
-1.8412500000000001,0.11631679367026329
-1.8400000000000001,0.11154762784952468
-1.8387500000000001,0.10575649792434208
-1.8374999999999999,0.099624713297678191
-1.8362499999999999,0.094514892775458242
-1.835,0.091449000462126284
-1.83375,0.089745726954719662
-1.8325,0.089064417551757008
-1.83125,0.089064417551757008
-1.8300000000000001,0.091108345760644971
-1.8287500000000001,0.093833583372495588
-1.8274999999999999,0.096218166282864892
-1.8262499999999999,0.098602749193234196
-1.825,0.10234995090952881
-1.82375,0.10643780732730476
-1.8225,0.11086631844656203
-1.82125,0.11563548426730061
-1.8200000000000001,0.1200639953865579
-1.8187500000000001,0.12381119710285252
-1.8174999999999999,0.12653643471470313
-1.8162499999999999,0.12755839881914713
-1.8149999999999999,0.12585512531174048
-1.81375,0.12108595949100187
-1.8125,0.11291024665544999
-1.81125,0.1033719150139728
-1.8100000000000001,0.092811619268051621
-1.8087500000000001,0.080888704716205101
-1.8075000000000001,0.067943826059914642
-1.8062499999999999,0.054658292702142813
-1.8049999999999999,0.041032104642889672
-1.80375,0.027065261882155217
-1.8025,0.013779728524383403
-1.80125,0.0011755045695742428
-1.8,-0.0087034817733842862
-1.7987500000000001,-0.015516575803010857
-1.7975000000000001,-0.018582468116342815
-1.7962499999999999,-0.017901158713380147
-1.7949999999999999,-0.015857230504492184
-1.79375,-0.01347264759412288
-1.7925,-0.01108806468375359
-1.79125,-0.0090441364748656133
-1.79,-0.0087034817733842862
-1.7887500000000001,-0.0097254458778282676
-1.7875000000000001,-0.012450683489678899
-1.7862499999999999,-0.017219849310417493
-1.7849999999999999,-0.023692288638562736
-1.7837499999999999,-0.031868001474114616
-1.7825,-0.04106567841411049
-1.78125,-0.051966628861513001
-1.78,-0.06423019811484082
-1.7787500000000001,-0.075812457965205998
-1.7775000000000001,-0.086713408412608509
-1.7762500000000001,-0.09625174005408571
-1.7749999999999999,-0.10374614348667494
-1.7737499999999999,-0.11055923751630151
-1.7725,-0.11566905803852143
-1.77125,-0.11839429565037206
-1.77,-0.11873495035185339
-1.76875,-0.11839429565037206
-1.7675000000000001,-0.11737233154592808
-1.7662500000000001,-0.11464709393407745
-1.7649999999999999,-0.11055923751630151
-1.7637499999999999,-0.10442745288963759
-1.7625,-0.096933049457048365
-1.76125,-0.08943864602445914
-1.76,-0.081944242591869915
-1.75875,-0.07683442206964998
-1.7575000000000001,-0.075131148562243344
-1.7562500000000001,-0.07683442206964998
-1.7549999999999999,-0.080240969084463265
-1.7537499999999999,-0.084669480203720546
-1.7524999999999999,-0.089779300725940467
-1.75125,-0.095911085352604383
-1.75,-0.10272417938223095
-1.74875,-0.11021858281482018
-1.7475000000000001,-0.11737233154592808
-1.7462500000000001,-0.12282280676962934
-1.7450000000000001,-0.1258886990829613
-1.7437499999999999,-0.12622935378444261
-1.7424999999999999,-0.12554804438147996
-1.74125,-0.12384477087407332
-1.74,-0.12146018796370402
-1.73875,-0.11907560505333473
-1.7375,-0.11669102214296542
-1.7362500000000001,-0.11362512982963346
-1.7350000000000001,-0.11021858281482018
-1.7337499999999999,-0.10681203580000689
-1.7324999999999999,-0.10544941699408159
-1.73125,-0.10579007169556291
-1.73,-0.1081746546059322
-1.72875,-0.11260316572518948
-1.7275,-0.11839429565037206
-1.7262500000000001,-0.12384477087407332
-1.7250000000000001,-0.12895459139629326
-1.7237499999999999,-0.13270179311258787
-1.7224999999999999,-0.13474572132147583
-1.7212499999999999,-0.13542703072443849
-1.72,-0.13372375721703184
-1.71875,-0.13099851960518122
-1.7175,-0.12657000848592395
-1.7162500000000001,-0.12043822385926004
-1.7150000000000001,-0.11328447512815214
-1.7137500000000001,-0.10476810759111892
-1.7124999999999999,-0.095570430651123056
-1.7112499999999999,-0.087054063114089836
-1.71,-0.080922278487425919
-1.70875,-0.077856386174093975
-1.7075,-0.077856386174093975
-1.70625,-0.079559659681500611
-1.7050000000000001,-0.081944242591869915
-1.7037500000000001,-0.085010134905201873
-1.7024999999999999,-0.088416681920015158
-1.7012499999999999,-0.090460610128903121
-1.7,-0.091482574233347103
-1.69875,-0.091482574233347103
-1.6975,-0.091141919531865789
-1.69625,-0.091141919531865789
-1.6950000000000001,-0.090460610128903121
-1.6937500000000001,-0.08943864602445914
-1.6924999999999999,-0.08773537251705249
-1.6912499999999999,-0.0853507896066832
-1.6899999999999999,-0.081603587890388588
-1.68875,-0.077175076771131307
-1.6875,-0.072065256248911386
-1.68625,-0.06627412632372881
-1.6850000000000001,-0.060482996398546214
-1.6837500000000001,-0.055032521174844959
-1.6825000000000001,-0.050944664757069019
-1.6812499999999999,-0.047878772443737061
-1.6799999999999999,-0.045834844234849091
-1.67875,-0.044131570727442448
-1.6775,-0.042768951921517133
-1.67625,-0.040384369011147836
-1.675,-0.037318476697815878
-1.6737500000000001,-0.03425258438448392
-1.6725000000000001,-0.030846037369670634
-1.6712499999999999,-0.027098835653376022
-1.6699999999999999,-0.023692288638562736
-1.66875,-0.020626396325230778
-1.6675,-0.017219849310417493
-1.66625,-0.013813302295604207
-1.665,-0.011428719385234917
-1.6637500000000001,-0.010066100579309595
-1.6625000000000001,-0.010066100579309595
-1.6612499999999999,-0.012450683489678899
-1.6599999999999999,-0.017219849310417493
-1.6587499999999999,-0.024373598041525391
-1.6575,-0.032208656175595957
-1.65625,-0.041746987817073151
-1.655,-0.052647938264475662
-1.6537500000000001,-0.065592816920766142
-1.6525000000000001,-0.078537695577056629
-1.6512500000000001,-0.090460610128903121
-1.6499999999999999,-0.099998941770380323
-1.6487499999999999,-0.10715269050148822
-1.6475,-0.11021858281482018
-1.64625,-0.1081746546059322
-1.645,-0.10170221527778696
-1.64375,-0.092163883636309771
-1.6425000000000001,-0.080581623785944606
-1.6412500000000001,-0.070021328040023423
-1.6399999999999999,-0.061504960502990202
-1.6387499999999999,-0.054351211771882305
-1.6375,-0.049241391249662377
-1.63625,-0.045834844234849091
-1.635,-0.04310960662299846
-1.63375,-0.042087642518554479
-1.6325000000000001,-0.043450261324479794
-1.6312500000000001,-0.045494189533367764
-1.6299999999999999,-0.047878772443737061
-1.6287499999999999,-0.051285319458550346
-1.6274999999999999,-0.055032521174844959
-1.62625,-0.058098413488176917
-1.625,-0.05980168699558356
-1.62375,-0.059461032294102233
-1.6225000000000001,-0.056735794682251602
-1.6212500000000001,-0.052647938264475662
-1.6200000000000001,-0.047538117742255734
-1.6187499999999999,-0.042768951921517133
-1.6174999999999999,-0.038681095503741193
-1.61625,-0.036296512593371896
-1.615,-0.035955857891890569
-1.61375,-0.037659131399297205
-1.6125,-0.040384369011147836
-1.6112500000000001,-0.044131570727442448
-1.6100000000000001,-0.049582045951143704
-1.6087499999999999,-0.056395139980770274
-1.6074999999999999,-0.063208234010396852
-1.60625,-0.068318054532616773
-1.605,-0.072065256248911386
-1.60375,-0.073768529756318035
-1.6025,-0.073087220353355367
-1.6012500000000001,-0.068318054532616773
-1.6000000000000001,-0.061164305801508875
-1.5987499999999999,-0.052647938264475662
-1.5974999999999999,-0.043790916025961121
-1.5962499999999999,-0.034933893787446574
-1.595,-0.026417526250413367
-1.59375,-0.019263777519305469
-1.5925,-0.013813302295604207
-1.5912500000000001,-0.010406755280790922
-1.5900000000000001,-0.0093847911763469405
-1.5887500000000001,-0.010747409982272249
-1.5874999999999999,-0.01517592110152953
-1.5862499999999999,-0.021989015131156101
-1.585,-0.03016472796670798
-1.58375,-0.038681095503741193
-1.5825,-0.04685680833929308
-1.58125,-0.054691866473363632
-1.5800000000000001,-0.062867579308915511
-1.5787500000000001,-0.071043292144467404
-1.5774999999999999,-0.077856386174093975
-1.5762499999999999,-0.083988170800757878
-1.575,-0.089097991322977813
-1.57375,-0.092845193039272425
-1.5725,-0.095229775949641729
-1.57125,-0.095229775949641729
-1.5700000000000001,-0.093185847740753752
-1.5687500000000001,-0.08943864602445914
-1.5674999999999999,-0.08364751609927655
-1.5662499999999999,-0.07683442206964998
-1.5649999999999999,-0.071043292144467404
-1.56375,-0.067296090428172778
-1.5625,-0.066614781025210124
-1.56125,-0.0686587092340981
-1.5600000000000001,-0.071724601547430059
-1.5587500000000001,-0.073427875054836694
-1.5575000000000001,-0.07274656565187404
-1.5562499999999999,-0.068318054532616773
-1.5549999999999999,-0.062186269905952857
-1.55375,-0.056395139980770274
-1.5525,-0.052307283562994335
-1.55125,-0.051285319458550346
-1.55,-0.052647938264475662
-1.5487500000000001,-0.055032521174844959
-1.5475000000000001,-0.058779722891139571
-1.5462499999999999,-0.062867579308915511
-1.5449999999999999,-0.065933471622247469
-1.54375,-0.068999363935579427
-1.5425,-0.071724601547430059
-1.54125,-0.07444983915928069
-1.54,-0.07683442206964998
-1.5387500000000001,-0.078197040875575302
-1.5375000000000001,-0.078878350278537956
-1.5362499999999999,-0.079219004980019284
-1.5349999999999999,-0.079219004980019284
-1.5337499999999999,-0.077515731472612648
-1.5325,-0.073427875054836694
-1.53125,-0.066955435726691465
-1.53,-0.059461032294102233
-1.5287500000000001,-0.050604010055587692
-1.5275000000000001,-0.041406333115591817
-1.5262500000000001,-0.032549310877077284
-1.5249999999999999,-0.023692288638562736
-1.5237499999999999,-0.015516575803010857
-1.5225,-0.0087034817733842862
-1.52125,-0.0018903877437577155
-1.52,0.0049227062858688553
-1.51875,0.012076455016976753
-1.5175000000000001,0.019230203748084651
-1.5162500000000001,0.026043297777711222
-1.5149999999999999,0.032515737105856451
-1.5137499999999999,0.0376255576280764
-1.5125,0.040350795239927018
-1.51125,0.040010140538445704
-1.51,0.035922284120669751
-1.50875,0.027746571285117871
-1.5075000000000001,0.01650496613623402
-1.5062500000000001,0.0028787780769808785
-1.5049999999999999,-0.012450683489678899
-1.5037499999999999,-0.027098835653376022
-1.5024999999999999,-0.040384369011147836
-1.50125,-0.051625974160031673
-1.5,-0.060482996398546214
-1.49875,-0.065252162219284815
-1.4975000000000001,-0.066614781025210124
-1.4962500000000001,-0.06627412632372881
-1.4950000000000001,-0.064911507517803488
-1.4937499999999999,-0.062867579308915511
-1.4924999999999999,-0.061504960502990202
-1.49125,-0.061164305801508875
-1.49,-0.061164305801508875
-1.48875,-0.060482996398546214
-1.4875,-0.058439068189658244
-1.4862500000000001,-0.056054485279288947
-1.4850000000000001,-0.054010557070400977
-1.4837499999999999,-0.052307283562994335
-1.4824999999999999,-0.050944664757069019
-1.48125,-0.050263355354106358
-1.48,-0.051285319458550346
-1.47875,-0.054010557070400977
-1.4775,-0.056735794682251602
-1.4762500000000001,-0.059461032294102233
-1.4750000000000001,-0.060142341697064887
-1.4737499999999999,-0.059120377592620905
-1.4724999999999999,-0.056395139980770274
-1.4712499999999999,-0.053669902368919643
-1.47,-0.051285319458550346
-1.46875,-0.049241391249662377
-1.4675,-0.048219427145218388
-1.4662500000000001,-0.049582045951143704
-1.4650000000000001,-0.051966628861513001
-1.4637500000000001,-0.054691866473363632
-1.4624999999999999,-0.056735794682251602
-1.4612499999999999,-0.059120377592620905
-1.46,-0.062186269905952857
-1.45875,-0.065252162219284815
-1.4575,-0.068318054532616773
-1.45625,-0.070021328040023423
-1.4550000000000001,-0.068999363935579427
-1.4537500000000001,-0.065592816920766142
-1.4524999999999999,-0.060142341697064887
-1.4512499999999999,-0.052647938264475662
-1.45,-0.043790916025961121
-1.44875,-0.034933893787446574
-1.4475,-0.029142763862263998
-1.44625,-0.025395562145969386
-1.4450000000000001,-0.023692288638562736
-1.4437500000000001,-0.023010979235600082
-1.4424999999999999,-0.023010979235600082
-1.4412499999999999,-0.023351633937081409
-1.4399999999999999,-0.024714252743006718
-1.43875,-0.027098835653376022
-1.4375,-0.03016472796670798
-1.43625,-0.03425258438448392
-1.4350000000000001,-0.038681095503741193
-1.4337500000000001,-0.042428297220035806
-1.4325000000000001,-0.044472225428923776
-1.4312499999999999,-0.044472225428923776
-1.4299999999999999,-0.042428297220035806
-1.42875,-0.03902175020522252
-1.4275,-0.034593239085965247
-1.42625,-0.030846037369670634
-1.425,-0.025736216847450713
-1.4237500000000001,-0.020626396325230778
-1.4225000000000001,-0.014153956997085534
-1.4212499999999999,-0.0063188988630149823
-1.4199999999999999,0.0025381233754995514
-1.41875,0.012757764419939407
-1.4175,0.022636750762897936
-1.41625,0.031153118299931143
-1.415,0.036262938822151092
-1.4137500000000001,0.0376255576280764
-1.4125000000000001,0.035922284120669751
-1.4112499999999999,0.031153118299931143
-1.4099999999999999,0.023318060165860591
-1.4087499999999999,0.013779728524383403
-1.4075,0.0052633609873501824
-1.40625,-0.00086842363931373401
-1.405,-0.0035936612511643512
-1.4037500000000001,-0.0049562800570896737
-1.4025000000000001,-0.0049562800570896737
-1.4012500000000001,-0.0042749706541270194
-1.3999999999999999,-0.0029123518482016969
-1.3987499999999999,-0.0012090783407950612
-1.3975,0.0018568139725368971
-1.39625,0.0059446703903128367
-1.395,0.01003252680808879
-1.39375,0.014461037927346057
-1.3925000000000001,0.019570858449565978
-1.3912500000000001,0.026043297777711222
-1.3899999999999999,0.034219010613263101
-1.3887499999999999,0.043076032851777663
-1.3875,0.050570436284366888
-1.38625,0.054998947403624154
-1.385,0.054998947403624154
-1.38375,0.048867162776960238
-1.3825000000000001,0.035922284120669751
-1.3812500000000001,0.017867584942159342
-1.3799999999999999,-0.0046156253556083465
-1.3787499999999999,-0.030505382668189307
-1.3774999999999999,-0.059120377592620905
-1.37625,-0.089097991322977813
-1.375,-0.11907560505333473
-1.37375,-0.14837190938072897
-1.3725000000000001,-0.17562428549923526
-1.3712500000000001,-0.20015142400589092
-1.3700000000000001,-0.22059070609477061
-1.3687499999999999,-0.23694213176587439
-1.3674999999999999,-0.24750242751179558
-1.36625,-0.25295290273549681
-1.365,-0.25295290273549681
-1.36375,-0.24886504631772088
-1.3625,-0.24171129758661297
-1.3612500000000001,-0.23285427534809844
-1.3600000000000001,-0.22229397960217726
-1.3587499999999999,-0.21105237445329342
-1.3574999999999999,-0.19912945990144693
-1.35625,-0.18550327184219378
-1.355,-0.17085511967849665
-1.35375,-0.15552565811183688
-1.3525,-0.14053685124665841
-1.3512500000000001,-0.1258886990829613
-1.3500000000000001,-0.11260316572518948
-1.3487499999999999,-0.10033959647186165
-1.3474999999999999,-0.089779300725940467
-1.3462499999999999,-0.080922278487425919
-1.345,-0.074109184457799349
-1.34375,-0.068999363935579427
-1.3425,-0.064911507517803488
-1.3412500000000001,-0.060482996398546214
-1.3400000000000001,-0.054691866473363632
-1.3387500000000001,-0.047878772443737061
-1.3374999999999999,-0.04106567841411049
-1.3362499999999999,-0.034933893787446574
-1.335,-0.030846037369670634
-1.33375,-0.027439490354857349
-1.3325,-0.024373598041525391
-1.33125,-0.021648360429674773
-1.3300000000000001,-0.018923122817824142
-1.3287500000000001,-0.015516575803010857
-1.3274999999999999,-0.01108806468375359
-1.3262499999999999,-0.005637589460052328
-1.325,-0.0012090783407950612
-1.32375,0.0018568139725368971
-1.3225,0.0025381233754995514
-1.32125,0.00083484986809291561
-1.3200000000000001,-0.0015497330422763883
-1.3187500000000001,-0.0035936612511643512
-1.3174999999999999,-0.0049562800570896737
-1.3162499999999999,-0.0063188988630149823
-1.3149999999999999,-0.0080221723704216319
-1.31375,-0.010406755280790922
-1.3125,-0.013131992892641553
-1.31125,-0.015857230504492184
-1.3100000000000001,-0.018582468116342815
-1.3087500000000001,-0.019945086922268124
-1.3075000000000001,-0.020626396325230778
-1.3062499999999999,-0.020285741623749451
-1.3049999999999999,-0.01756050401189882
-1.30375,-0.012110028788197572
-1.3025,-0.0039343159526456783
-1.30125,0.0066259797932755049
-1.3,0.019570858449565978
-1.2987500000000001,0.035240974717707096
-1.2975000000000001,0.051933055090292196
-1.2962499999999999,0.067262516656951959
-1.2949999999999999,0.079185431208798479
-1.29375,0.087361144044350358
-1.2925,0.092130309865088966
-1.29125,0.094855547476939583
-1.29,0.097240130387308887
-1.2887500000000001,0.10030602270064085
-1.2875000000000001,0.10371256971545412
-1.2862499999999999,0.10711911673026742
-1.2849999999999999,0.10950369964063672
-1.2837499999999999,0.10984435434211803
-1.2825,0.10950369964063672
-1.28125,0.10848173553619272
-1.28,0.10609715262582342
-1.2787500000000001,0.10166864150656615
-1.2775000000000001,0.096218166282864892
-1.2762500000000001,0.091449000462126284
-1.2749999999999999,0.086339179939906363
-1.2737499999999999,0.082591978223611751
-1.2725,0.078844776507317138
-1.27125,0.075438229492503867
-1.27,0.072372337179171908
-1.26875,0.068965790164358609
-1.2675000000000001,0.064537279045101342
-1.2662500000000001,0.057724185015474772
-1.2649999999999999,0.049207817478441551
-1.2637499999999999,0.039669485836964363
-1.2625,0.029790499494005834
-1.26125,0.020933477255491301
-1.26,0.014801692628827384
-1.25875,0.012076455016976753
-1.2575000000000001,0.012076455016976753
-1.2562500000000001,0.013439073822902076
-1.2549999999999999,0.016164311434752693
-1.2537499999999999,0.019570858449565978
-1.2524999999999999,0.024680678971785913
-1.25125,0.031493773001412484
-1.25,0.038988176434001709
-1.24875,0.046823234568072275
-1.2475000000000001,0.0543176380006615
-1.2462500000000001,0.060108767925844075
-1.2450000000000001,0.063855969642138688
-1.2437499999999999,0.065559243149545338
-1.2424999999999999,0.065559243149545338
-1.24125,0.065218588448063997
-1.24,0.065218588448063997
-1.23875,0.065899897851026651
-1.2375,0.067262516656951959
-1.2362500000000001,0.069987754268802604
-1.2350000000000001,0.07407561068657853
-1.2337499999999999,0.080548050014723788
-1.2324999999999999,0.089405072253238321
-1.23125,0.099624713297678191
-1.23,0.11052566374508069
-1.22875,0.1200639953865579
-1.2275,0.12721774411766579
-1.2262500000000001,0.13164625523692305
-1.2250000000000001,0.13369018344581102
-1.2237499999999999,0.13266821934136705
-1.2224999999999999,0.1285803629235911
-1.2212499999999999,0.12278923299840852
-1.22,0.11699810307322595
-1.21875,0.11222893725248734
-1.2175,0.10814108083471138
-1.2162500000000001,0.10371256971545412
-1.2150000000000001,0.097580785088790201
-1.2137500000000001,0.089405072253238321
-1.2124999999999999,0.079866740611761133
-1.2112499999999999,0.072031682477690567
-1.21,0.067262516656951959
-1.20875,0.066240552552507992
-1.2075,0.068625135462877296
-1.20625,0.072712991880653222
-1.2050000000000001,0.077822812402873143
-1.2037500000000001,0.083954597029537059
-1.2024999999999999,0.09076769105916363
-1.2012499999999999,0.097921439790271542
-1.2,0.10541584322286077
-1.19875,0.11256959195396865
-1.1975,0.11972334068507656
-1.19625,0.12653643471470313
-1.1950000000000001,0.13266821934136705
-1.1937500000000001,0.13607476635618032
-1.1924999999999999,0.13607476635618032
-1.1912499999999999,0.13300887404284836
-1.1899999999999999,0.12755839881914713
-1.18875,0.12142661419248321
-1.1875,0.11393221075989399
-1.18625,0.10507518852137943
-1.1850000000000001,0.095877511581383579
-1.1837500000000001,0.086339179939906363
-1.1825000000000001,0.077822812402873143
-1.1812499999999999,0.071350373074727913
-1.1799999999999999,0.066921861955470646
-1.17875,0.063855969642138688
-1.1775,0.062152696134732038
-1.17625,0.061130732030288071
-1.175,0.061130732030288071
-1.1737500000000001,0.062493350836213379
-1.1725000000000001,0.066240552552507992
-1.1712499999999999,0.071691027776209254
-1.1699999999999999,0.079185431208798479
-1.16875,0.086679834641387704
-1.1675,0.093152273969532934
-1.16625,0.096558820984346233
-1.165,0.097580785088790201
-1.1637500000000001,0.095536856879902238
-1.1625000000000001,0.090086381656200976
-1.1612499999999999,0.081570014119167783
-1.1599999999999999,0.070669063671765259
-1.1587499999999999,0.05908680382140008
-1.1575,0.047163889269553588
-1.15625,0.03558162941918841
-1.155,0.026383952479192563
-1.1537500000000001,0.019911513151047305
-1.1525000000000001,0.015142347330308711
-1.1512500000000001,0.011054490912532772
-1.1499999999999999,0.0066259797932755049
-1.1487499999999999,0.0021974686740182242
-1.1475,-0.0032530065496830241
-1.14625,-0.010406755280790922
-1.145,-0.01756050401189882
-1.14375,-0.023351633937081409
-1.1425000000000001,-0.026758180951894694
-1.1412500000000001,-0.027780145056338676
-1.1399999999999999,-0.027439490354857349
-1.1387499999999999,-0.027780145056338676
-1.1375,-0.029483418563745326
-1.13625,-0.030846037369670634
-1.135,-0.032208656175595957
-1.13375,-0.03425258438448392
-1.1325000000000001,-0.038340440802259866
-1.1312500000000001,-0.045834844234849091
-1.1299999999999999,-0.056054485279288947
