#Digilent WaveForms Oscilloscope Acquisition
#Device Name: Discovery2
#Serial Number: SN:210321A18883
#Date Time: 2017-10-05 00:27:15.153
#Trigger:Source: Channel 1Type: EdgeCondition: RisingLevel: 0 VHyst.: AutoHoldOff: 0 s
#Channel 2: Range: 100 mV/div Offset: 100 mV

Time (s),Channel 2 (V)
-5,-0.067636745129654119
-4.9987500000000002,-0.064911507517803488
-4.9974999999999996,-0.061845615204470135
-4.9962499999999999,-0.058779722891139571
-4.9950000000000001,-0.055373175876326286
-4.9937500000000004,-0.051285319458552206
-4.9924999999999997,-0.046516153637811745
-4.99125,-0.041406333115591817
-4.9900000000000002,-0.037999786100778532
-4.9887499999999996,-0.03697782199633548
-4.9874999999999998,-0.03902175020522252
-4.9862500000000001,-0.044472225428923776
-4.9850000000000003,-0.052307283562990775
-4.9837499999999997,-0.061164305801512595
-4.9824999999999999,-0.069340018637060755
-4.9812500000000002,-0.074790493860762017
-4.9800000000000004,-0.078537695577054922
-4.9787499999999998,-0.079559659681500611
-4.9775,-0.078878350278537956
-4.9762500000000003,-0.077175076771131307
-4.9749999999999996,-0.074790493860760934
-4.9737499999999999,-0.072405910950392713
-4.9725000000000001,-0.069340018637060755
-4.9712500000000004,-0.066614781025211359
-4.9699999999999998,-0.064570852816322161
-4.96875,-0.062867579308915511
-4.9675000000000002,-0.061164305801508875
-4.9662499999999996,-0.059120377592620128
-4.9649999999999999,-0.057417104085214263
-4.9637500000000001,-0.057076449383732929
-4.9625000000000004,-0.059120377592619976
-4.9612499999999997,-0.062526924607434198
-4.96,-0.065592816920766142
-4.9587500000000002,-0.067977399831135446
-4.9574999999999996,-0.068999363935579733
-4.9562499999999998,-0.069680673338542082
-4.9550000000000001,-0.071043292144467404
-4.9537500000000003,-0.073427875054835612
-4.9524999999999997,-0.076153112666688103
-4.9512499999999999,-0.077856386174093975
-4.9500000000000002,-0.078537695577056629
-4.9487500000000004,-0.078878350278537804
-4.9474999999999998,-0.078537695577056629
-4.94625,-0.077856386174093975
-4.9450000000000003,-0.076153112666687325
-4.9437499999999996,-0.07342787505483514
-4.9424999999999999,-0.070021328040023423
-4.9412500000000001,-0.066614781025210124
-4.9400000000000004,-0.063889543413360741
-4.9387499999999998,-0.06184561520447153
-4.9375,-0.060142341697064887
-4.9362500000000002,-0.058439068189658244
-4.9349999999999996,-0.056054485279288017
-4.9337499999999999,-0.054010557070400977
-4.9325000000000001,-0.052307283562994335
-4.9312500000000004,-0.051285319458550811
-4.9299999999999997,-0.050263355354106358
-4.92875,-0.050263355354106358
-4.9275000000000002,-0.049922700652625031
-4.9262499999999996,-0.050263355354106511
-4.9249999999999998,-0.050604010055587692
-4.9237500000000001,-0.051625974160031673
-4.9225000000000003,-0.051966628861512848
-4.9212499999999997,-0.053669902368921191
-4.9199999999999999,-0.057076449383732929
-4.9187500000000002,-0.06184561520447153
-4.9175000000000004,-0.066274126323726798
-4.9162499999999998,-0.069340018637060755
-4.915,-0.070702637442986077
-4.9137500000000003,-0.068999363935579427
-4.9124999999999996,-0.06559281692076413
-4.9112499999999999,-0.061164305801508875
-4.9100000000000001,-0.056735794682251602
-4.9087500000000004,-0.053669902368921038
-4.9074999999999998,-0.051625974160031673
-4.90625,-0.050263355354106358
-4.9050000000000002,-0.049582045951143704
-4.9037499999999996,-0.049922700652625183
-4.9024999999999999,-0.050263355354106358
-4.9012500000000001,-0.049241391249662377
-4.9000000000000004,-0.046175498936331813
-4.8987499999999997,-0.041746987817073151
-4.8975,-0.037659131399297205
-4.8962500000000002,-0.035274548488927901
-4.8949999999999996,-0.034933893787447039
-4.8937499999999998,-0.035955857891890569
-4.8925000000000001,-0.037999786100778532
-4.8912500000000003,-0.041065678414109096
-4.8899999999999997,-0.044472225428925635
-4.8887499999999999,-0.048560081846699722
-4.8875000000000002,-0.054010557070400977
-4.8862500000000004,-0.061164305801505621
-4.8849999999999998,-0.068318054532616773
-4.88375,-0.074790493860762017
-4.8825000000000003,-0.080922278487425919
-4.8812499999999996,-0.085691444308165915
-4.8799999999999999,-0.088757336621496485
-4.8787500000000001,-0.089097991322977813
-4.8775000000000004,-0.086713408412609591
-4.8762499999999998,-0.080922278487425919
-4.875,-0.073087220353355367
-4.8737500000000002,-0.064911507517803488
-4.8724999999999996,-0.057757758786692953
-4.8712499999999999,-0.051966628861513001
-4.8700000000000001,-0.048560081846699722
-4.8687500000000004,-0.046516153637812675
-4.8674999999999997,-0.046516153637811745
-4.86625,-0.047878772443737061
-4.8650000000000002,-0.050263355354106358
-4.8637499999999996,-0.0523072835629948
-4.8624999999999998,-0.053329247667438316
-4.8612500000000001,-0.053329247667438316
-4.8600000000000003,-0.051966628861513618
-4.8587499999999997,-0.05026335535410574
-4.8574999999999999,-0.048900736548181049
-4.8562500000000002,-0.048219427145218388
-4.8550000000000004,-0.047538117742256046
-4.8537499999999998,-0.04685680833929308
-4.8525,-0.045834844234849091
-4.8512500000000003,-0.045834844234849091
-4.8499999999999996,-0.047538117742257593
-4.8487499999999999,-0.051625974160031673
-4.8475000000000001,-0.05571383057780762
-4.8462500000000004,-0.057076449383732311
-4.8449999999999998,-0.056395139980770274
-4.84375,-0.054691866473363632
-4.8425000000000002,-0.052647938264475662
-4.8412499999999996,-0.050604010055586915
-4.8399999999999999,-0.048900736548181049
-4.8387500000000001,-0.046516153637811745
-4.8375000000000004,-0.043109606623000007
-4.8362499999999997,-0.039362404906703848
-4.835,-0.037659131399297205
-4.8337500000000002,-0.037999786100778532
-4.8324999999999996,-0.039362404906704625
-4.8312499999999998,-0.04106567841411049
-4.8300000000000001,-0.043450261324479794
-4.8287500000000003,-0.045834844234848009
-4.8274999999999997,-0.047538117742255886
-4.8262499999999999,-0.047878772443737061
-4.8250000000000002,-0.047538117742255734
-4.8237500000000004,-0.047197463040774559
-4.8224999999999998,-0.047878772443737061
-4.82125,-0.049582045951143704
-4.8200000000000003,-0.051966628861513001
-4.8187499999999996,-0.054691866473364874
-4.8174999999999999,-0.057417104085214263
-4.8162500000000001,-0.05980168699558356
-4.8150000000000004,-0.060823651100027083
-4.8137499999999998,-0.060482996398546214
-4.8125,-0.059120377592620905
-4.8112500000000002,-0.056735794682251602
-4.8099999999999996,-0.052647938264473025
-4.8087499999999999,-0.04685680833929308
-4.8075000000000001,-0.039703059608185175
-4.8062500000000004,-0.03323062028004288
-4.8049999999999997,-0.028802109160782671
-4.80375,-0.025395562145969386
-4.8025000000000002,-0.024373598041525391
-4.8012499999999996,-0.02369228863856258
-4.7999999999999998,-0.023351633937081409
-4.7987500000000001,-0.023010979235600082
-4.7975000000000003,-0.022670324534118911
-4.7962499999999997,-0.022670324534118911
-4.7949999999999999,-0.023010979235600082
-4.7937500000000002,-0.022670324534118755
-4.7925000000000004,-0.021648360429675238
-4.7912499999999998,-0.020285741623749451
-4.79,-0.019604432220786797
-4.7887500000000003,-0.019263777519305469
-4.7874999999999996,-0.019263777519305313
-4.7862499999999999,-0.018923122817824142
-4.7850000000000001,-0.018241813414861488
-4.7837500000000004,-0.016538539907455612
-4.7824999999999998,-0.01517592110152953
-4.78125,-0.014153956997085534
-4.7800000000000002,-0.012791338191160226
-4.7787499999999996,-0.013131992892642483
-4.7774999999999999,-0.01517592110152953
-4.7762500000000001,-0.019604432220786797
-4.7750000000000004,-0.024373598041523222
-4.7737499999999997,-0.028802109160782671
-4.7725,-0.031527346772633288
-4.7712500000000002,-0.033230620280039938
-4.7699999999999996,-0.034252584384484072
-4.7687499999999998,-0.034593239085965247
-4.7675000000000001,-0.034933893787446574
-4.7662500000000003,-0.03561520319040893
-4.7649999999999997,-0.036977821996335793
-4.7637499999999999,-0.039703059608185175
-4.7625000000000002,-0.042768951921517133
-4.7612500000000004,-0.045834844234847696
-4.7599999999999998,-0.047538117742255734
-4.75875,-0.04685680833929308
-4.7575000000000003,-0.044472225428923776
-4.7562499999999996,-0.041065678414109096
-4.7549999999999999,-0.037999786100778532
-4.7537500000000001,-0.035615203190409242
-4.7525000000000004,-0.03391192968300337
-4.7512499999999998,-0.032208656175595957
-4.75,-0.030846037369670634
-4.7487500000000002,-0.029483418563745326
-4.7474999999999996,-0.029142763862264307
-4.7462499999999999,-0.029824073265226653
-4.7450000000000001,-0.031527346772633288
-4.7437500000000004,-0.032208656175595644
-4.7424999999999997,-0.032889965578558611
-4.74125,-0.033230620280039938
-4.7400000000000002,-0.033571274981521265
-4.7387499999999996,-0.034933893787447351
-4.7374999999999998,-0.036637167294853223
-4.7362500000000001,-0.039703059608185175
-4.7350000000000003,-0.042087642518553396
-4.7337499999999997,-0.043450261324480259
-4.7324999999999999,-0.044472225428923776
-4.7312500000000002,-0.045153534831886437
-4.7300000000000004,-0.045153534831886437
-4.7287499999999998,-0.045494189533367764
-4.7275,-0.047538117742255734
-4.7262500000000003,-0.052307283562994335
-4.7249999999999996,-0.057757758786698067
-4.7237499999999999,-0.063208234010396852
-4.7225000000000001,-0.066955435726691465
-4.7212500000000004,-0.070021328040022035
-4.7199999999999998,-0.073087220353355367
-4.71875,-0.076493767368168653
-4.7175000000000002,-0.079559659681500611
-4.7162499999999996,-0.080922278487425614
-4.7149999999999999,-0.080240969084463265
-4.7137500000000001,-0.079900314382981938
-4.7125000000000004,-0.081944242591868985
-4.7112499999999997,-0.087394717815571163
-4.71,-0.092504538337791098
-4.7087500000000002,-0.095229775949641729
-4.7074999999999996,-0.095570430651122432
-4.7062499999999998,-0.094207811845197734
-4.7050000000000001,-0.093185847740753752
-4.7037500000000003,-0.093867157143716101
-4.7024999999999997,-0.094889121248160554
-4.7012499999999999,-0.095229775949641729
-4.7000000000000002,-0.095229775949641729
-4.6987500000000004,-0.094889121248160554
-4.6974999999999998,-0.093185847740753752
-4.69625,-0.090119955427421794
-4.6950000000000003,-0.086713408412608509
-4.6937499999999996,-0.082625551994830251
-4.6924999999999999,-0.077515731472612648
-4.6912500000000001,-0.07274656565187404
-4.6900000000000004,-0.068999363935581134
-4.6887499999999998,-0.066955435726691465
-4.6875,-0.06627412632372881
-4.6862500000000002,-0.067977399831135446
-4.6849999999999996,-0.072065256248914175
-4.6837499999999999,-0.078197040875575302
-4.6825000000000001,-0.084669480203720546
-4.6812500000000004,-0.090460610128900484
-4.6799999999999997,-0.095229775949641729
-4.67875,-0.099658287068898996
-4.6775000000000002,-0.10374614348667494
-4.6762499999999996,-0.10919661871037883
-4.6749999999999998,-0.11498774863555877
-4.6737500000000001,-0.11873495035185339
-4.6725000000000003,-0.11873495035185339
-4.6712499999999997,-0.11430643923259177
-4.6699999999999999,-0.10476810759111892
-4.6687500000000002,-0.091823228934828444
-4.6675000000000004,-0.076834422069656794
-4.6662499999999998,-0.063208234010396852
-4.665,-0.050263355354106358
-4.6637500000000003,-0.036977821996334551
-4.6624999999999996,-0.023351633937074748
-4.6612499999999999,-0.0087034817733842862
-4.6600000000000001,0.0056040156888315096
-4.6587500000000004,0.018208239643634938
-4.6574999999999998,0.027746571285117871
-4.65625,0.032856391807337793
-4.6550000000000002,0.033878355911781788
-4.6537499999999996,0.031834427702891785
-4.6524999999999999,0.02740591658363653
-4.6512500000000001,0.021955441359935282
-4.6500000000000004,0.015483002031792981
-4.6487499999999997,0.0093512174051261221
-4.6475,0.0039007421814248738
-4.6462500000000002,0.00083484986809291561
-4.6449999999999996,0.0011755045695757919
-4.6437499999999998,0.0045820515843875281
-4.6425000000000001,0.0096918721066074492
-4.6412500000000003,0.016164311434749751
-4.6399999999999997,0.022977405464381432
-4.6387499999999999,0.027746571285117871
-4.6375000000000002,0.029449844792524521
-4.6362500000000004,0.027746571285118645
-4.6349999999999998,0.022977405464379264
-4.63375,0.017186275539196688
-4.6325000000000003,0.013439073822902076
-4.6312499999999996,0.012417109718458856
-4.6299999999999999,0.01412038322586473
-4.6287500000000001,0.01820823964364067
-4.6275000000000004,0.022636750762895924
-4.6262499999999998,0.025361988374748567
-4.625,0.025021333673267226
-4.6237500000000002,0.021955441359935282
-4.6224999999999996,0.017186275539193746
-4.6212499999999999,0.010713836211051445
-4.6200000000000001,-0.0012090783407950612
-4.6187500000000004,-0.018241813414853741
-4.6174999999999997,-0.03902175020522252
-4.61625,-0.062867579308915511
-4.6150000000000002,-0.08943864602445914
-4.6137499999999996,-0.11635036744149618
-4.6124999999999998,-0.14292143415702771
-4.6112500000000001,-0.16744857266368335
-4.6100000000000003,-0.18890981885699729
-4.6087499999999997,-0.20696451803552504
-4.6074999999999999,-0.22365659840810256
-4.6062500000000002,-0.23898605997476235
-4.6050000000000004,-0.25056831982512223
-4.6037499999999998,-0.25874403266067941
-4.6025,-0.26623843609326864
-4.6012500000000003,-0.27032629251104456
-4.5999999999999996,-0.26794170960067176
-4.5987499999999999,-0.26010665146660472
-4.5975000000000001,-0.25056831982512751
-4.5962500000000004,-0.2403486787806923
-4.5949999999999998,-0.22876641893032248
-4.59375,-0.215821540274032
-4.5925000000000002,-0.20185469751329754
-4.5912499999999996,-0.18754720005107525
-4.5899999999999999,-0.17323970258886595
-4.5887500000000001,-0.15893220512665016
-4.5875000000000004,-0.14598732647036555
-4.5862499999999997,-0.13304244781406918
-4.585,-0.12214149736666667
-4.5837500000000002,-0.11192185632222681
-4.5824999999999996,-0.10204286997926365
-4.5812499999999998,-0.091823228934828444
-4.5800000000000001,-0.08126293318890726
-4.5787500000000003,-0.070702637442990879
-4.5774999999999997,-0.061164305801505316
-4.5762499999999999,-0.053329247667438316
-4.5750000000000002,-0.04685680833929308
-4.5737500000000004,-0.041065678414113127
-4.5724999999999998,-0.034593239085965247
-4.57125,-0.02846145445930133
-4.5700000000000003,-0.022670324534118755
-4.5687499999999996,-0.018582468116342194
-4.5674999999999999,-0.017219849310417493
-4.5662500000000001,-0.016538539907454838
-4.5650000000000004,-0.016197885205973667
-4.5637499999999998,-0.016197885205973511
-4.5625,-0.015516575803010857
-4.5612500000000002,-0.011769374086716244
-4.5599999999999996,-0.0049562800570864202
-4.5587499999999999,0.0021974686740182242
-4.5575000000000001,0.0096918721066074492
-4.5562500000000004,0.017867584942155623
-4.5549999999999997,0.02740591658363653
-4.55375,0.0376255576280764
-4.5525000000000002,0.04580127046362828
-4.5512499999999996,0.050911090985848201
-4.5499999999999998,0.050911090985848201
-4.5487500000000001,0.046823234568072275
-4.5475000000000003,0.040010140538448799
-4.5462499999999997,0.03285639180733485
-4.5449999999999999,0.026383952479192563
-4.5437500000000002,0.020252167852528632
-4.5425000000000004,0.014801692628829863
-4.5412499999999998,0.011735800315495426
-4.54,0.01003252680808879
-4.5387500000000003,0.0083292533006821406
-4.5374999999999996,0.0056040156888302701
-4.5362499999999999,0.0028787780769808785
-4.5350000000000001,0.00083484986809291561
-4.5337500000000004,0.0011755045695740879
-4.5324999999999998,0.004241396882906201
-4.53125,0.0086699080021634678
-4.5300000000000002,0.012757764419939407
-4.5287499999999996,0.015823656733272604
-4.5274999999999999,0.018548894345121997
-4.5262500000000001,0.020592822554009974
-4.5250000000000004,0.020592822554009974
-4.5237499999999997,0.018548894345121997
-4.5225,0.016845620837715347
-4.5212500000000002,0.017186275539196688
-4.5199999999999996,0.018889549046604254
-4.5187499999999998,0.020933477255491301
-4.5175000000000001,0.022296096061416609
-4.5162500000000003,0.023658714867341297
-4.5149999999999997,0.024680678971786687
-4.5137499999999999,0.026383952479192563
-4.5125000000000002,0.029449844792524521
-4.5112500000000004,0.032175082404373896
-4.5099999999999998,0.034559665314744442
-4.50875,0.035922284120669751
-4.5075000000000003,0.036262938822151092
-4.5062499999999996,0.034559665314742583
-4.5049999999999999,0.030471808896968489
-4.5037500000000001,0.025021333673267226
-4.5025000000000004,0.018548894345124939
-4.5012499999999998,0.013098419121420735
-4.5,0.0096918721066074492
-4.4987500000000002,0.0083292533006821406
-4.4974999999999996,0.0083292533006819863
-4.4962499999999999,0.0079885985992008135
-4.4950000000000001,0.0079885985992008135
-4.4937500000000004,0.0076479438977196416
-4.4924999999999997,0.0076479438977194864
-4.49125,0.0076479438977194864
-4.4900000000000002,0.0086699080021634678
-4.4887499999999996,0.010713836211052683
-4.4874999999999998,0.013439073822902076
-4.4862500000000001,0.01650496613623402
-4.4850000000000003,0.019911513151045758
-4.4837499999999997,0.021955441359935903
-4.4824999999999999,0.023318060165860591
-4.4812500000000002,0.025021333673267226
-4.4800000000000004,0.028768535389560135
-4.4787499999999998,0.011735800315495426
-4.4775,0.015142347330308711
-4.4762500000000003,0.01820823964364067
-4.4749999999999996,0.021614786658455658
-4.4737499999999999,0.025361988374748567
-4.4725000000000001,0.028427880688080526
-4.4712500000000004,0.029790499494005213
-4.4699999999999998,0.029449844792524521
-4.46875,0.028087225986599185
-4.4675000000000002,0.027065261882155217
-4.4662499999999996,0.026043297777710292
-4.4649999999999999,0.023999369568823259
-4.4637500000000001,0.021614786658453955
-4.4625000000000004,0.019230203748085734
-4.4612499999999997,0.017186275539196688
-4.46,0.017186275539196688
-4.4587500000000002,0.017867584942159342
-4.4574999999999996,0.020592822554011833
-4.4562499999999998,0.024680678971785913
-4.4550000000000001,0.02910919009104318
-4.4537500000000003,0.032856391807336086
-4.4524999999999997,0.035922284120670681
-4.4512499999999999,0.037966212329557714
-4.4500000000000002,0.040010140538445704
-4.4487500000000004,0.042735378150295079
-4.4474999999999998,0.046141925165109593
-4.44625,0.050570436284366888
-4.4450000000000003,0.054658292702142813
-4.4437499999999996,0.057042875612512117
-4.4424999999999999,0.057042875612512117
-4.4412500000000001,0.055680256806586809
-4.4400000000000004,0.053976983299180936
-4.4387499999999998,0.051592400388810855
-4.4375,0.049207817478441551
-4.4362500000000002,0.045119961060665625
-4.4349999999999996,0.040350795239925311
-4.4337499999999999,0.036603593523632405
-4.4325000000000001,0.034900320016225755
-4.4312500000000004,0.035240974717706944
-4.4299999999999997,0.0376255576280764
-4.42875,0.040691449941408359
-4.4275000000000002,0.043757342254740317
-4.4262499999999996,0.046823234568073822
-4.4249999999999998,0.050229781582885547
-4.4237500000000001,0.053976983299180159
-4.4225000000000003,0.057724185015473065
-4.4212499999999997,0.062834005537696858
-4.4199999999999999,0.0676031713584333
-4.4187500000000002,0.072031682477690567
-4.4175000000000004,0.076119538895464661
-4.4162499999999998,0.079866740611761133
-4.415,0.082251323522130437
-4.4137500000000003,0.082591978223611751
-4.4124999999999996,0.081570014119166701
-4.4112499999999999,0.079185431208798479
-4.4100000000000001,0.076119538895466521
-4.4087500000000004,0.074416265388060648
-4.4074999999999998,0.075097574791022526
-4.40625,0.077822812402873143
-4.4050000000000002,0.081910668820649096
-4.4037499999999996,0.085317215835464408
-4.4024999999999999,0.089745726954719662
-4.4012500000000001,0.095196202178420897
-4.4000000000000004,0.10132798680508202
-4.3987499999999997,0.10780042613323007
-4.3975,0.11461352016285664
-4.3962500000000002,0.12108595949100187
-4.3949999999999996,0.12585512531174217
-4.3937499999999998,0.12960232702803509
-4.3925000000000001,0.13266821934136705
-4.3912500000000003,0.1347121475502541
-4.3899999999999997,0.13505280225173619
-4.3887499999999999,0.13471214755025501
-4.3875000000000002,0.13369018344581102
-4.3862500000000004,0.13198690993840517
-4.3849999999999998,0.12926167232655375
-4.38375,0.12551447061025914
-4.3825000000000003,0.11972334068507656
-4.3812499999999996,0.11325090135692885
-4.3799999999999999,0.10780042613323007
-4.3787500000000001,0.10473453381989811
-4.3775000000000004,0.10371256971545458
-4.3762499999999998,0.10439387911841677
-4.375,0.10609715262582342
-4.3737500000000002,0.10711911673026742
-4.3724999999999996,0.1067784620287853
-4.3712499999999999,0.10507518852137943
-4.3700000000000001,0.10132798680508481
-4.3687500000000004,0.09621816628286721
-4.3674999999999997,0.089745726954719662
-4.36625,0.083273287626574405
-4.3650000000000002,0.076800848298429175
-4.3637499999999996,0.071350373074725276
-4.3624999999999998,0.065559243149545338
-4.3612500000000001,0.060108767925844075
-4.3600000000000003,0.054658292702145291
-4.3587499999999997,0.048185853373994329
-4.3574999999999999,0.041032104642889672
-4.3562500000000002,0.033537701210300447
-4.3550000000000004,0.024680678971789941
-4.3537499999999998,0.015142347330308711
-4.3525,0.0039007421814248738
-4.3512500000000003,-0.0080221723704216319
-4.3499999999999996,-0.01892312281782817
-4.3487499999999999,-0.027780145056338676
-4.3475000000000001,-0.03425258438448392
-4.3462500000000004,-0.040043714309663872
-4.3449999999999998,-0.044131570727442448
-4.34375,-0.047538117742255734
-4.3425000000000002,-0.051285319458550346
-4.3412499999999996,-0.055373175876328146
-4.3399999999999999,-0.059461032294102233
-4.3387500000000001,-0.064570852816322161
-4.3375000000000004,-0.070021328040020939
-4.3362499999999997,-0.074790493860762017
-4.335,-0.080240969084463265
-4.3337500000000002,-0.086032099009645854
-4.3324999999999996,-0.091823228934831386
-4.3312499999999998,-0.098295668262973687
-4.3300000000000001,-0.10340548878519361
-4.3287500000000003,-0.10749334520296769
-4.3274999999999997,-0.11021858281482126
-4.3262499999999999,-0.11260316572518948
-4.3250000000000002,-0.1153284033370401
-4.3237500000000004,-0.11873495035185183
-4.3224999999999998,-0.122482152068148
-4.32125,-0.12725131788888661
-4.3200000000000003,-0.13236113841110653
-4.3187499999999996,-0.13713030423184683
-4.3174999999999999,-0.14087750594813975
-4.3162500000000001,-0.14258077945554637
-4.3150000000000004,-0.14292143415702754
-4.3137499999999998,-0.14292143415702771
-4.3125,-0.14189947005258374
-4.3112500000000002,-0.14087750594813975
-4.3099999999999996,-0.13985554184369559
-4.3087499999999999,-0.13951488714221444
-4.3075000000000001,-0.1391742324407331
-4.3062500000000004,-0.1381522683362896
-4.3049999999999997,-0.13781161363480779
-4.30375,-0.13849292303777044
-4.3025000000000002,-0.14019619654517709
-4.3012499999999996,-0.14155881535110287
-4.2999999999999998,-0.14258077945554637
-4.2987500000000001,-0.14428405296295302
-4.2975000000000003,-0.14632798117184009
-4.2962499999999997,-0.14769059997776693
-4.2949999999999999,-0.14905321878369163
-4.2937500000000002,-0.14973452818665428
-4.2925000000000004,-0.14939387348517313
-4.2912499999999998,-0.14700929057480366
-4.29,-0.14326208885850905
-4.2887500000000003,-0.13951488714221444
-4.2874999999999996,-0.13610834012739989
-4.2862499999999999,-0.13338310251555052
-4.2850000000000001,-0.13202048370962521
-4.2837500000000004,-0.13133917430666284
-4.2824999999999998,-0.13099851960518122
-4.28125,-0.12997655550073722
-4.2800000000000002,-0.12895459139629326
-4.2787499999999996,-0.12861393669481222
-4.2774999999999999,-0.12929524609777457
-4.2762500000000001,-0.12997655550073722
-4.2750000000000004,-0.13065786490369957
-4.2737499999999997,-0.13167982900814387
-4.2725,-0.13270179311258787
-4.2712500000000002,-0.13372375721703184
-4.2699999999999996,-0.13542703072443973
-4.2687499999999998,-0.13815226833628913
-4.2675000000000001,-0.14087750594813975
-4.2662500000000003,-0.14326208885850797
-4.2649999999999997,-0.14496536236591598
-4.2637499999999999,-0.14564667176887836
-4.2625000000000002,-0.14462470766443436
-4.2612500000000004,-0.14326208885850966
-4.2599999999999998,-0.14189947005258374
-4.25875,-0.13985554184369575
-4.2575000000000003,-0.13610834012740114
-4.2562499999999996,-0.13099851960517875
-4.2549999999999999,-0.12554804438147996
-4.2537500000000001,-0.12214149736666667
-4.2525000000000004,-0.12043822385926081
-4.2512499999999998,-0.11975691445629738
-4.25,-0.11941625975481604
-4.2487500000000002,-0.11907560505333473
-4.2474999999999996,-0.11975691445629846
-4.2462499999999999,-0.12214149736666667
-4.2450000000000001,-0.12452608027703597
-4.2437500000000004,-0.12520738967999834
-4.2424999999999997,-0.12418542557555465
-4.24125,-0.12180084266518534
-4.2400000000000002,-0.11805364094889073
-4.2387499999999996,-0.11226251102370506
-4.2374999999999998,-0.10544941699408159
-4.2362500000000001,-0.097955013561492346
-4.2350000000000003,-0.091141919531868884
-4.2337499999999997,-0.087394717815570538
-4.2324999999999999,-0.086032099009645854
-4.2312500000000002,-0.086713408412608509
-4.2300000000000004,-0.088757336621495556
-4.2287499999999998,-0.090801264830384448
-4.2275,-0.091823228934828444
-4.2262500000000003,-0.092504538337791098
-4.2249999999999996,-0.09284519303927273
-4.2237499999999999,-0.093526502442235079
-4.2225000000000001,-0.093526502442235079
-4.2212500000000004,-0.093526502442235079
-4.2199999999999998,-0.093526502442235079
-4.21875,-0.092845193039272425
-4.2175000000000002,-0.091823228934828444
-4.2162499999999996,-0.091141919531865484
-4.2149999999999999,-0.090460610128903121
-4.2137500000000001,-0.090801264830384448
-4.2125000000000004,-0.092163883636309146
-4.2112499999999997,-0.093526502442235079
-4.21,-0.094207811845197734
-4.2087500000000002,-0.094207811845197734
-4.2074999999999996,-0.092845193039271801
-4.2062499999999998,-0.091482574233347103
-4.2050000000000001,-0.090119955427421794
-4.2037500000000003,-0.08875733662149711
-4.2024999999999997,-0.086713408412607121
-4.2012499999999999,-0.08364751609927655
-4.2000000000000002,-0.080581623785944606
-4.1987500000000004,-0.078878350278538734
-4.1974999999999998,-0.078197040875575302
-4.19625,-0.078537695577056629
-4.1950000000000003,-0.078197040875575302
-4.1937499999999996,-0.078197040875575302
-4.1924999999999999,-0.078197040875575302
-4.1912500000000001,-0.078878350278537956
-4.1900000000000004,-0.07990031438298148
-4.1887499999999998,-0.080240969084463265
-4.1875,-0.080240969084463265
-4.1862500000000002,-0.081944242591869915
-4.1849999999999996,-0.086032099009647867
-4.1837499999999999,-0.090460610128903121
-4.1825000000000001,-0.093867157143716407
-4.1812500000000004,-0.095229775949641104
-4.1799999999999997,-0.094889121248160402
-4.17875,-0.092845193039272425
-4.1775000000000002,-0.089779300725940467
-4.1762499999999996,-0.085691444308162515
-4.1749999999999998,-0.08126293318890726
-4.1737500000000001,-0.077856386174093975
-4.1725000000000003,-0.075131148562244579
-4.1712499999999997,-0.07274656565187311
-4.1699999999999999,-0.070702637442986077
-4.1687500000000002,-0.0686587092340981
-4.1675000000000004,-0.067296090428173402
-4.1662499999999998,-0.066614781025210124
-4.165,-0.06627412632372881
-4.1637500000000003,-0.065933471622247469
-4.1624999999999996,-0.066274126323729116
-4.1612499999999999,-0.066955435726691465
-4.1600000000000001,-0.067977399831135446
-4.1587500000000004,-0.06934001863706013
-4.1574999999999998,-0.071043292144467404
-4.15625,-0.072065256248911386
-4.1550000000000002,-0.073087220353355367
-4.1537499999999996,-0.073427875054837
-4.1524999999999999,-0.074109184457799349
-4.1512500000000001,-0.075812457965205998
-4.1500000000000004,-0.077856386174093045
-4.1487499999999997,-0.078878350278537956
-4.1475,-0.078878350278537956
-4.1462500000000002,-0.078537695577056629
-4.1449999999999996,-0.078878350278538262
-4.1437499999999998,-0.079559659681500611
-4.1425000000000001,-0.080240969084463265
-4.1412500000000003,-0.080922278487425614
-4.1399999999999997,-0.081603587890388282
-4.1387499999999999,-0.080922278487425919
-4.1375000000000002,-0.078537695577056629
-4.1362500000000004,-0.075131148562244898
-4.1349999999999998,-0.071724601547430059
-4.13375,-0.067636745129654119
-4.1325000000000003,-0.063548888711878165
-4.1312499999999996,-0.059801686995582012
-4.1299999999999999,-0.056395139980770274
-4.1287500000000001,-0.052647938264475662
-4.1275000000000004,-0.048560081846701582
-4.1262499999999998,-0.044812880130405103
-4.125,-0.041746987817073151
-4.1237500000000002,-0.039362404906703848
-4.1224999999999996,-0.038340440802260331
-4.1212499999999999,-0.039362404906703848
-4.1200000000000001,-0.043450261324479794
-4.1187500000000004,-0.050944664757065612
-4.1174999999999997,-0.05980168699558356
-4.11625,-0.067636745129654119
-4.1150000000000002,-0.073768529756318035
-4.1137499999999996,-0.077856386174094599
-4.1124999999999998,-0.079219004980019284
-4.1112500000000001,-0.077515731472612648
-4.1100000000000003,-0.074790493860763252
-4.1087499999999997,-0.071724601547428823
-4.1074999999999999,-0.068999363935579427
-4.1062500000000002,-0.06627412632372881
-4.1050000000000004,-0.063889543413360589
-4.1037499999999998,-0.061164305801508875
-4.1025,-0.058439068189658244
-4.1012500000000003,-0.056735794682251602
-4.0999999999999996,-0.056054485279288947
-4.0987499999999999,-0.056054485279288947
-4.0975000000000001,-0.057076449383732929
-4.0962500000000004,-0.058779722891138794
-4.0949999999999998,-0.062186269905952857
-4.09375,-0.065933471622247469
-4.0925000000000002,-0.069340018637060755
-4.0912499999999996,-0.071724601547430517
-4.0899999999999999,-0.07274656565187404
-4.0887500000000001,-0.072405910950392713
-4.0875000000000004,-0.070021328040024505
-4.0862499999999997,-0.066614781025210124
-4.085,-0.062526924607434198
-4.0837500000000002,-0.058779722891139571
-4.0824999999999996,-0.056054485279287553
-4.0812499999999998,-0.052988592965956989
-4.0800000000000001,-0.049582045951143704
-4.0787500000000003,-0.046175498936331966
-4.0774999999999997,-0.043790916025960504
-4.0762499999999999,-0.042428297220035806
-4.0750000000000002,-0.04310960662299846
-4.0737500000000004,-0.044812880130404326
-4.0724999999999998,-0.04685680833929308
-4.07125,-0.049241391249662377
-4.0700000000000003,-0.051625974160031673
-4.0687499999999996,-0.052988592965956989
-4.0674999999999999,-0.052988592965956989
-4.0662500000000001,-0.051966628861513001
-4.0650000000000004,-0.052307283562994182
-4.0637499999999998,-0.055373175876326286
-4.0625,-0.059461032294102233
-4.0612500000000002,-0.062186269905952857
-4.0599999999999996,-0.063208234010396852
-4.0587499999999999,-0.063208234010396852
-4.0575000000000001,-0.062526924607434198
-4.0562500000000004,-0.062186269905953009
-4.0549999999999997,-0.063548888711878165
-4.05375,-0.066614781025210124
-4.0525000000000002,-0.069680673338542082
-4.0512499999999996,-0.072405910950393171
-4.0499999999999998,-0.073427875054836694
-4.0487500000000001,-0.073087220353355367
-4.0475000000000003,-0.072065256248911844
-4.0462499999999997,-0.07002132804002234
-4.0449999999999999,-0.067636745129654119
-4.0437500000000002,-0.064911507517803488
-4.0425000000000004,-0.06252692460743528
-4.0412499999999998,-0.05980168699558356
-4.04,-0.057417104085214263
-4.0387500000000003,-0.05571383057780762
-4.0374999999999996,-0.055373175876326904
-4.0362499999999999,-0.056735794682251602
-4.0350000000000001,-0.060142341697064887
-4.0337500000000004,-0.064570852816320148
-4.0324999999999998,-0.068999363935579427
-4.03125,-0.07274656565187404
-4.0300000000000002,-0.075471803263724671
-4.0287499999999996,-0.076153112666686701
-4.0274999999999999,-0.074790493860762017
-4.0262500000000001,-0.071383946845948731
-4.0250000000000004,-0.065592816920768779
-4.0237499999999997,-0.058779722891139571
-4.0225,-0.052307283562994335
-4.0212500000000002,-0.047878772443737061
-4.0199999999999996,-0.046175498936331036
-4.0187499999999998,-0.047538117742255734
-4.0175000000000001,-0.051625974160031673
-4.0162500000000003,-0.057076449383730452
-4.0149999999999997,-0.063548888711880955
-4.0137499999999999,-0.069680673338542082
-4.0125000000000002,-0.074790493860762017
-4.0112500000000004,-0.077856386174092587
-4.0099999999999998,-0.078537695577056629
-4.00875,-0.077856386174093975
-4.0075000000000003,-0.077856386174093975
-4.0062499999999996,-0.079219004980020061
-4.0049999999999999,-0.080922278487425919
-4.0037500000000001,-0.082625551994832569
-4.0025000000000004,-0.083306861397794918
-4.0012499999999998,-0.081944242591869915
-4,-0.078878350278537956
-3.9987499999999998,-0.07444983915928069
-3.9975000000000001,-0.070361982741504736
-3.9962499999999999,-0.065252162219284815
-3.9950000000000001,-0.05980168699558356
-3.9937499999999999,-0.054351211771882305
-3.9925000000000002,-0.049241391249662377
-3.99125,-0.045494189533367764
-3.9900000000000002,-0.043450261324479794
-3.98875,-0.042768951921517133
-3.9874999999999998,-0.042428297220035806
-3.9862500000000001,-0.043790916025961121
-3.9849999999999999,-0.045494189533367764
-3.9837500000000001,-0.048219427145218388
-3.9824999999999999,-0.051285319458550346
-3.9812500000000002,-0.052988592965956989
-3.98,-0.053329247667438316
-3.9787499999999998,-0.052988592965956989
-3.9775,-0.052307283562994335
-3.9762499999999998,-0.052307283562994335
-3.9750000000000001,-0.053329247667438316
-3.9737499999999999,-0.055032521174844959
-3.9725000000000001,-0.05775775878669559
-3.9712499999999999,-0.06184561520447153
-3.9700000000000002,-0.06627412632372881
-3.96875,-0.071383946845948731
-3.9674999999999998,-0.076493767368168653
-3.9662500000000001,-0.08126293318890726
-3.9649999999999999,-0.084328825502239219
-3.9637500000000001,-0.084669480203720546
-3.9624999999999999,-0.082625551994832569
-3.9612500000000002,-0.078878350278537956
-3.96,-0.074109184457799349
-3.9587500000000002,-0.068999363935579427
-3.9575,-0.063889543413359506
-3.9562499999999998,-0.059461032294102233
-3.9550000000000001,-0.056054485279288947
-3.9537499999999999,-0.054351211771882305
-3.9525000000000001,-0.053329247667438316
-3.9512499999999999,-0.052307283562994335
-3.9500000000000002,-0.051285319458550346
-3.94875,-0.050263355354106358
-3.9474999999999998,-0.051285319458550346
-3.94625,-0.053669902368919643
-3.9449999999999998,-0.056054485279288947
-3.9437500000000001,-0.057076449383732929
-3.9424999999999999,-0.056054485279288947
-3.9412500000000001,-0.054691866473363632
-3.9399999999999999,-0.053669902368919643
-3.9387500000000002,-0.053329247667438316
-3.9375,-0.052988592965956989
-3.9362499999999998,-0.051625974160031673
-3.9350000000000001,-0.049582045951143704
-3.9337499999999999,-0.048560081846699722
-3.9325000000000001,-0.048219427145218388
-3.9312499999999999,-0.048219427145218388
-3.9300000000000002,-0.047878772443737061
-3.92875,-0.047878772443737061
-3.9275000000000002,-0.047878772443737061
-3.92625,-0.048219427145218388
-3.9249999999999998,-0.049582045951143704
-3.9237500000000001,-0.052307283562994335
-3.9224999999999999,-0.054691866473363632
-3.9212500000000001,-0.056735794682251602
-3.9199999999999999,-0.05775775878669559
-3.9187500000000002,-0.058098413488176917
-3.9175,-0.058098413488176917
-3.9162499999999998,-0.05775775878669559
-3.915,-0.056054485279288947
-3.9137499999999998,-0.053329247667438316
-3.9125000000000001,-0.050263355354106358
-3.9112499999999999,-0.047197463040774407
-3.9100000000000001,-0.045153534831886437
-3.9087499999999999,-0.04310960662299846
-3.9075000000000002,-0.042087642518554479
-3.90625,-0.041406333115591817
-3.9049999999999998,-0.041746987817073151
-3.9037500000000001,-0.042428297220035806
-3.9024999999999999,-0.04310960662299846
-3.9012500000000001,-0.04310960662299846
-3.8999999999999999,-0.042428297220035806
-3.8987500000000002,-0.041406333115591817
-3.8975,-0.039362404906703848
-3.8962500000000002,-0.036637167294853223
-3.895,-0.033911929683002592
-3.8937499999999998,-0.031527346772633288
-3.8925000000000001,-0.03016472796670798
-3.8912499999999999,-0.029483418563745326
-3.8900000000000001,-0.029483418563745326
-3.8887499999999999,-0.029483418563745326
-3.8875000000000002,-0.03016472796670798
-3.88625,-0.031186692071151961
-3.8849999999999998,-0.032208656175595957
-3.88375,-0.033230620280039938
-3.8824999999999998,-0.033911929683002592
-3.8812500000000001,-0.033571274981521265
-3.8799999999999999,-0.033230620280039938
-3.8787500000000001,-0.033571274981521265
-3.8774999999999999,-0.035615203190409242
-3.8762500000000002,-0.038340440802259866
-3.875,-0.041746987817073151
-3.8737499999999998,-0.044812880130405103
-3.8725000000000001,-0.04685680833929308
-3.8712499999999999,-0.04685680833929308
-3.8700000000000001,-0.046175498936330418
-3.8687499999999999,-0.044812880130405103
-3.8675000000000002,-0.04310960662299846
-3.86625,-0.040725023712629163
-3.8650000000000002,-0.036296512593371896
-3.86375,-0.031527346772633288
-3.8624999999999998,-0.027439490354857349
-3.8612500000000001,-0.023692288638562736
-3.8599999999999999,-0.020967051026712105
-3.8587500000000001,-0.018923122817824142
-3.8574999999999999,-0.018582468116342815
-3.8562500000000002,-0.021307705728193432
-3.855,-0.026758180951894694
-3.8537499999999998,-0.031868001474114616
-3.8525,-0.034933893787446574
-3.8512499999999998,-0.035615203190409242
-3.8500000000000001,-0.034933893787446574
-3.8487499999999999,-0.033230620280039938
-3.8475000000000001,-0.030846037369670634
-3.8462499999999999,-0.028802109160782671
-3.8450000000000002,-0.02846145445930133
-3.84375,-0.031186692071151961
-3.8424999999999998,-0.035274548488927901
-3.8412500000000001,-0.039362404906703848
-3.8399999999999999,-0.041746987817073151
-3.8387500000000001,-0.042768951921517133
-3.8374999999999999,-0.042428297220035806
-3.8362500000000002,-0.04106567841411049
-3.835,-0.040384369011147836
-3.8337500000000002,-0.041406333115591817
-3.8325,-0.04310960662299846
-3.8312499999999998,-0.045153534831886437
-3.8300000000000001,-0.04685680833929308
-3.8287499999999999,-0.048219427145218388
-3.8275000000000001,-0.050263355354106358
-3.8262499999999999,-0.054691866473363632
-3.8250000000000002,-0.060823651100027548
-3.82375,-0.066955435726691465
-3.8224999999999998,-0.071383946845948731
-3.82125,-0.073768529756318035
-3.8199999999999998,-0.075131148562243344
-3.8187500000000001,-0.074790493860762017
-3.8174999999999999,-0.07274656565187404
-3.8162500000000001,-0.070021328040023423
-3.8149999999999999,-0.066614781025210124
-3.8137500000000002,-0.063208234010396852
-3.8125,-0.059120377592620905
-3.8112499999999998,-0.055373175876326286
-3.8100000000000001,-0.052307283562994335
-3.8087499999999999,-0.050604010055587692
-3.8075000000000001,-0.050944664757069019
-3.8062499999999999,-0.052988592965956989
-3.8050000000000002,-0.05571383057780762
-3.80375,-0.057417104085214263
-3.8025000000000002,-0.058098413488176917
-3.80125,-0.05775775878669559
-3.7999999999999998,-0.057076449383732929
-3.7987500000000001,-0.057076449383732929
-3.7974999999999999,-0.05775775878669559
-3.7962500000000001,-0.058779722891139571
-3.7949999999999999,-0.060823651100027548
-3.7937500000000002,-0.063889543413359506
-3.7925,-0.0686587092340981
-3.7912499999999998,-0.074109184457799349
-3.79,-0.078878350278537956
-3.7887499999999998,-0.082625551994832569
-3.7875000000000001,-0.086032099009645854
-3.7862499999999999,-0.089097991322977813
-3.7850000000000001,-0.092163883636309771
-3.7837499999999999,-0.094889121248160402
-3.7825000000000002,-0.096592394755567038
-3.78125,-0.097955013561492346
-3.7799999999999998,-0.098976977665936341
-3.7787500000000001,-0.098976977665936341
-3.7774999999999999,-0.097273704158529692
-3.7762500000000001,-0.093185847740753752
-3.7749999999999999,-0.087054063114089836
-3.7737500000000002,-0.080240969084463265
-3.7725,-0.07274656565187404
-3.7712500000000002,-0.064911507517803488
-3.77,-0.05775775878669559
-3.7687499999999998,-0.052988592965956989
-3.7675000000000001,-0.050604010055587692
-3.7662499999999999,-0.050944664757069019
-3.7650000000000001,-0.051625974160031673
-3.7637499999999999,-0.051625974160031673
-3.7625000000000002,-0.049582045951143704
-3.76125,-0.047538117742255734
-3.7599999999999998,-0.047538117742255734
-3.75875,-0.050604010055587692
-3.7574999999999998,-0.055032521174844959
-3.7562500000000001,-0.059120377592620905
-3.7549999999999999,-0.063548888711878165
-3.7537500000000001,-0.067977399831135446
-3.7524999999999999,-0.071043292144467404
-3.7512500000000002,-0.072065256248911386
-3.75,-0.070702637442986077
-3.7487499999999998,-0.067977399831135446
-3.7475000000000001,-0.062867579308915511
-3.7462499999999999,-0.056395139980770274
-3.7450000000000001,-0.050604010055587692
-3.7437499999999999,-0.045494189533367764
-3.7425000000000002,-0.038681095503741193
-3.74125,-0.03016472796670798
-3.7400000000000002,-0.020967051026712105
-3.73875,-0.012110028788197572
-3.7374999999999998,-0.0049562800570896737
-3.7362500000000001,-0.00018711423635106583
-3.7349999999999999,0.0032194327784622195
-3.7337500000000001,0.0032194327784622195
-3.7324999999999999,0.0015161592710555699
-3.7312500000000002,-0.00052776893783239298
-3.73,-0.0022310424452390426
-3.7287499999999998,-0.0042749706541270194
-3.7275,-0.0052969347585710008
-3.7262499999999998,-0.005637589460052328
-3.7250000000000001,-0.0049562800570896737
-3.7237499999999999,-0.0052969347585710008
-3.7225000000000001,-0.0063188988630149823
-3.7212499999999999,-0.0073408629674589637
-3.7200000000000002,-0.0076815176689403047
-3.71875,-0.0063188988630149823
-3.7174999999999998,-0.0032530065496830241
-3.7162500000000001,0.0015161592710555699
-3.7149999999999999,0.0079885985992008135
-3.7137500000000001,0.016164311434752693
-3.7124999999999999,0.026043297777711222
-3.7112500000000002,0.034900320016225755
-3.71,0.040691449941408359
-3.7087500000000002,0.041372759344371013
-3.7075,0.036603593523632405
-3.7062499999999998,0.025361988374748567
-3.7050000000000001,0.010373181509570117
-3.7037499999999999,-0.0080221723704216319
-3.7025000000000001,-0.02846145445930133
-3.7012499999999999,-0.051625974160031673
-3.7000000000000002,-0.077856386174093975
-3.69875,-0.10579007169556291
-3.6974999999999998,-0.13372375721703184
-3.69625,-0.16029482393257546
-3.6949999999999998,-0.18516261714071244
-3.6937500000000001,-0.20696451803551746
-3.6924999999999999,-0.22570052661699055
-3.6912500000000001,-0.24000802407920635
-3.6899999999999999,-0.2492057010192022
-3.6887500000000002,-0.2539748668399408
-3.6875,-0.25533748564586611
-3.6862499999999998,-0.25295290273549681
-3.6850000000000001,-0.24716177281031423
-3.6837499999999999,-0.23796409587031836
-3.6825000000000001,-0.22638183601995321
-3.6812499999999999,-0.21411826676662538
-3.6800000000000002,-0.20117338811033489
-3.67875,-0.18788785475256309
-3.6775000000000002,-0.17426166669330995
-3.67625,-0.16029482393257546
-3.6749999999999998,-0.14700929057480366
-3.6737500000000001,-0.13372375721703184
-3.6724999999999999,-0.122482152068148
-3.6712500000000001,-0.11294382042667081
-3.6699999999999999,-0.10476810759111892
-3.6687500000000002,-0.098976977665936341
-3.6675,-0.093526502442235079
-3.6662499999999998,-0.089097991322977813
-3.665,-0.085010134905201873
-3.6637499999999998,-0.080581623785944606
-3.6625000000000001,-0.075812457965205998
-3.6612499999999999,-0.070702637442986077
-3.6600000000000001,-0.064570852816322161
-3.6587499999999999,-0.057417104085214263
-3.6575000000000002,-0.049582045951143704
-3.65625,-0.042768951921517133
-3.6549999999999998,-0.036637167294853223
-3.6537500000000001,-0.032208656175595957
-3.6524999999999999,-0.029142763862263998
-3.6512500000000001,-0.026417526250413367
-3.6499999999999999,-0.024373598041525391
-3.6487500000000002,-0.022670324534118755
-3.6475,-0.020967051026712105
-3.6462500000000002,-0.018923122817824142
-3.645,-0.01517592110152953
-3.6437499999999998,-0.01108806468375359
-3.6425000000000001,-0.0059782441615336551
-3.6412499999999999,-0.0022310424452390426
-3.6400000000000001,-0.00052776893783239298
-3.6387499999999999,-0.00086842363931373401
-3.6375000000000002,-0.0018903877437577155
-3.63625,-0.0022310424452390426
-3.6349999999999998,-0.0012090783407950612
-3.63375,0.00049419516661158847
-3.6324999999999998,0.0021974686740182242
-3.6312500000000001,0.0025381233754995514
-3.6299999999999999,0.0015161592710555699
-3.6287500000000001,-0.0012090783407950612
-3.6274999999999999,-0.005637589460052328
-3.6262500000000002,-0.0097254458778282676
-3.625,-0.012450683489678899
-3.6237499999999998,-0.013131992892641553
-3.6225000000000001,-0.014153956997085534
-3.6212499999999999,-0.015516575803010857
-3.6200000000000001,-0.016879194608936166
-3.6187499999999999,-0.018241813414861488
-3.6175000000000002,-0.018582468116342815
-3.61625,-0.016197885205973511
-3.6150000000000002,-0.011428719385234917
-3.61375,-0.0039343159526456783
-3.6124999999999998,0.0052633609873501824
-3.6112500000000001,0.01412038322586473
-3.6099999999999999,0.021614786658453955
-3.6087500000000001,0.027746571285117871
-3.6074999999999999,0.032175082404375138
-3.6062500000000002,0.034900320016225755
-3.605,0.035922284120669751
-3.6037499999999998,0.03558162941918841
-3.6025,0.034900320016225755
-3.6012499999999998,0.034559665314744442
-3.6000000000000001,0.03558162941918841
-3.5987499999999999,0.036944248225113746
-3.5975000000000001,0.038988176434001709
-3.5962499999999999,0.040691449941408359
-3.5950000000000002,0.041372759344371013
-3.59375,0.042054068747333667
-3.5924999999999998,0.043076032851777663
-3.5912500000000001,0.04409799695622163
-3.5899999999999999,0.044779306359184284
-3.5887500000000001,0.044438651657702971
-3.5874999999999999,0.043076032851777663
-3.5862500000000002,0.040691449941408359
-3.585,0.038306867031039055
-3.5837500000000002,0.035922284120669751
-3.5825,0.033197046508819134
-3.5812499999999998,0.030471808896968489
-3.5800000000000001,0.028768535389561839
-3.5787499999999999,0.027746571285117871
-3.5775000000000001,0.02740591658363653
-3.5762499999999999,0.026724607180673876
-3.5750000000000002,0.026724607180673876
-3.57375,0.028087225986599185
-3.5724999999999998,0.029449844792524521
-3.57125,0.030471808896968489
-3.5699999999999998,0.031153118299931143
-3.5687500000000001,0.031493773001412484
-3.5674999999999999,0.032515737105856451
-3.5662500000000001,0.034900320016225755
-3.5649999999999999,0.038988176434001709
-3.5637500000000002,0.043416687553258976
-3.5625,0.047845198672516243
-3.5612499999999998,0.051251745687329542
-3.5600000000000001,0.053976983299180159
-3.5587499999999999,0.056361566209549463
-3.5575000000000001,0.058405494418437426
-3.5562499999999999,0.059768113224362734
-3.5550000000000002,0.06079007732880673
-3.55375,0.061812041433250725
-3.5525000000000002,0.062152696134732038
-3.55125,0.061471386731769384
-3.5499999999999998,0.060449422627325389
-3.5487500000000001,0.06079007732880673
-3.5474999999999999,0.062834005537694693
-3.5462500000000001,0.064877933746582683
-3.5449999999999999,0.068625135462877296
-3.5437500000000002,0.072712991880653222
-3.5425,0.076119538895466521
-3.5412499999999998,0.078163467104354484
-3.54,0.079526085910279792
-3.5387499999999998,0.080888704716205101
-3.5375000000000001,0.082591978223611751
-3.5362499999999999,0.083954597029537059
-3.5350000000000001,0.0842952517310184
-3.5337499999999999,0.0842952517310184
-3.5325000000000002,0.083273287626574405
-3.53125,0.081229359417686442
-3.5299999999999998,0.079866740611761133
-3.5287500000000001,0.079866740611761133
-3.5274999999999999,0.081229359417686442
-3.5262500000000001,0.082932632925093092
-3.5249999999999999,0.084976561133981054
-3.5237500000000002,0.087701798745831672
-3.5225,0.090086381656200976
-3.5212500000000002,0.092130309865088966
-3.52,0.093833583372495588
-3.5187499999999998,0.094855547476939583
-3.5175000000000001,0.094855547476939583
-3.5162499999999999,0.095196202178420897
-3.5150000000000001,0.096218166282864892
-3.5137499999999999,0.098262094491752855
-3.5125000000000002,0.10132798680508481
-3.51125,0.10439387911841677
-3.5099999999999998,0.10711911673026742
-3.50875,0.10950369964063672
-3.5074999999999998,0.11120697314804334
-3.5062500000000001,0.111888282551006
-3.5049999999999999,0.111888282551006
-3.5037500000000001,0.111888282551006
-3.5024999999999999,0.11325090135693133
-3.5012500000000002,0.11461352016285664
-3.5,0.11495417486433795
-3.4987499999999998,0.11495417486433795
-3.4975000000000001,0.11461352016285664
-3.4962499999999999,0.1142728654613753
-3.4950000000000001,0.11291024665544999
-3.4937499999999999,0.111888282551006
-3.4925000000000002,0.11154762784952468
-3.49125,0.111888282551006
-3.4900000000000002,0.11291024665544999
-3.48875,0.11325090135693133
-3.4874999999999998,0.11291024665544999
-3.4862500000000001,0.11120697314804334
-3.4849999999999999,0.10882239023767404
-3.4837500000000001,0.10575649792434208
-3.4824999999999999,0.10166864150656615
-3.4812500000000002,0.096218166282864892
-3.48,0.090086381656200976
-3.4787499999999998,0.0842952517310184
-3.4775,0.080888704716205101
-3.4762499999999998,0.079185431208798479
-3.4750000000000001,0.078163467104354484
-3.4737499999999999,0.076460193596947834
-3.4725000000000001,0.073394301283615876
-3.4712499999999999,0.067943826059914642
-3.4700000000000002,0.061130732030288071
-3.46875,0.052955019194736164
-3.4674999999999998,0.044438651657702971
-3.4662500000000001,0.036944248225113746
-3.4649999999999999,0.03081246359844983
-3.4637500000000001,0.026383952479192563
-3.4624999999999999,0.022977405464379264
-3.4612500000000002,0.019570858449565978
-3.46,0.015823656733271366
-3.4587500000000002,0.011735800315495426
-3.4575,0.0059446703903128367
-3.4562499999999998,-0.0012090783407950612
-3.4550000000000001,-0.0093847911763469405
-3.4537499999999999,-0.017219849310417493
-3.4525000000000001,-0.025736216847450713
-3.4512499999999999,-0.033230620280039938
-3.4500000000000002,-0.039362404906703848
-3.44875,-0.044472225428923776
-3.4474999999999998,-0.047538117742255734
-3.44625,-0.049241391249662377
-3.4449999999999998,-0.051285319458550346
-3.4437500000000001,-0.054010557070400977
-3.4424999999999999,-0.058439068189658244
-3.4412500000000001,-0.064911507517803488
-3.4399999999999999,-0.072065256248911386
-3.4387500000000002,-0.079900314382981938
-3.4375,-0.088416681920015158
-3.4362499999999998,-0.096933049457048365
-3.4350000000000001,-0.10579007169556291
-3.4337499999999999,-0.11396578453111479
-3.4325000000000001,-0.11941625975481604
-3.4312499999999999,-0.122482152068148
-3.4300000000000002,-0.1248667349785173
-3.42875,-0.12725131788888661
-3.4275000000000002,-0.13099851960518122
-3.42625,-0.13542703072443849
-3.4249999999999998,-0.13985554184369575
-3.4237500000000001,-0.14394339826147171
-3.4224999999999999,-0.14734994527628498
-3.4212500000000001,-0.15007518288813562
-3.4199999999999999,-0.15211911109702358
-3.4187500000000002,-0.15382238460443023
-3.4175,-0.15552565811183688
-3.4162499999999998,-0.15620696751479951
-3.415,-0.15552565811183688
-3.4137499999999998,-0.15348172990294889
-3.4125000000000001,-0.15041583758961694
-3.4112499999999999,-0.14700929057480366
-3.4100000000000001,-0.14360274355999036
-3.4087499999999999,-0.14019619654517709
-3.4075000000000002,-0.13678964953036379
-3.40625,-0.13338310251555052
-3.4049999999999998,-0.13099851960518122
-3.4037500000000001,-0.12895459139629326
-3.4024999999999999,-0.1282732819933306
-3.4012500000000001,-0.12895459139629326
-3.3999999999999999,-0.12997655550073722
-3.3987500000000002,-0.12997655550073722
-3.3975,-0.12861393669481191
-3.3962500000000002,-0.1258886990829613
-3.395,-0.12350411617259199
-3.3937499999999998,-0.12077887856074136
-3.3925000000000001,-0.11873495035185339
-3.3912499999999999,-0.11669102214296542
-3.3900000000000001,-0.11600971274000277
-3.3887499999999999,-0.1163503674414841
-3.3875000000000002,-0.1177129862474094
-3.38625,-0.11941625975481604
-3.3849999999999998,-0.12111953326222269
-3.38375,-0.12214149736666667
-3.3824999999999998,-0.12282280676962934
-3.3812500000000001,-0.12384477087407332
-3.3799999999999999,-0.12554804438147996
-3.3787500000000001,-0.12725131788888661
-3.3774999999999999,-0.12861393669481191
-3.3762500000000002,-0.12895459139629326
-3.375,-0.12895459139629326
-3.3737499999999998,-0.13099851960518122
-3.3725000000000001,-0.13304244781406918
-3.3712499999999999,-0.13338310251555052
-3.3700000000000001,-0.13167982900814387
-3.3687499999999999,-0.1282732819933306
-3.3675000000000002,-0.12418542557555465
-3.36625,-0.12043822385926004
-3.3650000000000002,-0.11737233154592808
-3.36375,-0.11566905803852143
-3.3624999999999998,-0.11600971274000277
-3.3612500000000001,-0.11737233154592808
-3.3599999999999999,-0.11839429565037206
-3.3587500000000001,-0.11737233154592808
-3.3574999999999999,-0.11464709393407745
-3.3562500000000002,-0.11089989221778283
-3.355,-0.10783399990445088
-3.3537499999999998,-0.10647138109852557
-3.3525,-0.10715269050148822
-3.3512499999999998,-0.10851530930741354
-3.3500000000000001,-0.11089989221778283
-3.3487499999999999,-0.11362512982963346
-3.3475000000000001,-0.11498774863555877
-3.3462499999999999,-0.11498774863555877
-3.3450000000000002,-0.11362512982963346
-3.34375,-0.11124054691926416
-3.3424999999999998,-0.10851530930741354
-3.3412500000000001,-0.10579007169556291
-3.3399999999999999,-0.10306483408371228
-3.3387500000000001,-0.10068025117334298
-3.3374999999999999,-0.097955013561492346
-3.3362500000000002,-0.094889121248160402
-3.335,-0.091823228934828444
-3.3337500000000002,-0.089097991322977813
-3.3325,-0.086713408412608509
-3.3312499999999998,-0.0853507896066832
-3.3300000000000001,-0.085010134905201873
-3.3287499999999999,-0.085010134905201873
-3.3275000000000001,-0.084328825502239219
-3.3262499999999999,-0.083988170800757878
-3.3250000000000002,-0.084669480203720546
-3.32375,-0.087054063114089836
-3.3224999999999998,-0.090119955427421794
-3.32125,-0.094889121248160402
-3.3199999999999998,-0.098976977665936341
-3.3187500000000001,-0.10136156057630563
-3.3174999999999999,-0.10136156057630563
-3.3162500000000001,-0.10033959647186165
-3.3149999999999999,-0.097614358860011019
-3.3137500000000002,-0.094207811845197734
-3.3125,-0.091141919531865789
-3.3112499999999998,-0.088757336621496485
-3.3100000000000001,-0.086372753711127181
-3.3087499999999999,-0.084669480203720546
-3.3075000000000001,-0.084328825502239219
-3.3062499999999999,-0.085010134905201873
-3.3050000000000002,-0.087054063114089836
-3.30375,-0.08943864602445914
-3.3025000000000002,-0.090801264830384448
-3.30125,-0.091823228934828444
-3.2999999999999998,-0.092504538337791098
-3.2987500000000001,-0.093185847740753752
-3.2974999999999999,-0.094548466546679061
-3.2962500000000001,-0.096592394755567038
-3.2949999999999999,-0.098976977665936341
-3.2937500000000002,-0.10068025117334298
-3.2925,-0.10238352468074963
-3.2912499999999998,-0.10374614348667494
-3.29,-0.10374614348667494
-3.2887499999999998,-0.10272417938223095
-3.2875000000000001,-0.10068025117334298
-3.2862499999999999,-0.096933049457048365
-3.2850000000000001,-0.091482574233347103
-3.2837499999999999,-0.085691444308164527
-3.2825000000000002,-0.079559659681500611
-3.28125,-0.07444983915928069
-3.2799999999999998,-0.070361982741504736
-3.2787500000000001,-0.066955435726691465
-3.2774999999999999,-0.06423019811484082
-3.2762500000000001,-0.06184561520447153
-3.2749999999999999,-0.05980168699558356
-3.2737500000000002,-0.058098413488176917
-3.2725,-0.05775775878669559
-3.2712500000000002,-0.05775775878669559
-3.27,-0.058779722891139571
-3.2687499999999998,-0.060823651100027548
-3.2675000000000001,-0.062867579308915511
-3.2662499999999999,-0.064911507517803488
-3.2650000000000001,-0.066955435726691465
-3.2637499999999999,-0.069680673338542082
-3.2625000000000002,-0.07274656565187404
-3.26125,-0.075131148562243344
-3.2599999999999998,-0.076153112666687325
-3.25875,-0.075812457965205998
-3.2574999999999998,-0.075471803263724671
-3.2562500000000001,-0.075812457965205998
-3.2549999999999999,-0.07683442206964998
-3.2537500000000001,-0.07683442206964998
-3.2524999999999999,-0.075471803263724671
-3.2512500000000002,-0.07274656565187404
-3.25,-0.0686587092340981
-3.2487499999999998,-0.063889543413359506
-3.2475000000000001,-0.058779722891139571
-3.2462499999999999,-0.054010557070400977
-3.2450000000000001,-0.049582045951143704
-3.2437499999999999,-0.04685680833929308
-3.2425000000000002,-0.047197463040774407
-3.24125,-0.049241391249662377
-3.2400000000000002,-0.051966628861513001
-3.23875,-0.054691866473363632
-3.2374999999999998,-0.057076449383732929
-3.2362500000000001,-0.060142341697064887
-3.2349999999999999,-0.063889543413359506
-3.2337500000000001,-0.067636745129654119
-3.2324999999999999,-0.071383946845948731
-3.2312500000000002,-0.074790493860762017
-3.23,-0.078878350278537956
-3.2287499999999998,-0.083306861397795223
-3.2275,-0.088076027218533831
-3.2262499999999998,-0.091141919531865789
-3.2250000000000001,-0.091823228934828444
-3.2237499999999999,-0.090460610128903121
-3.2225000000000001,-0.086372753711127181
-3.2212499999999999,-0.079900314382981938
-3.2200000000000002,-0.07274656565187404
-3.21875,-0.064911507517803488
-3.2174999999999998,-0.055373175876326286
-3.2162500000000001,-0.045834844234849091
-3.2149999999999999,-0.036977821996334551
-3.2137500000000001,-0.029483418563745326
-3.2124999999999999,-0.024032943340044063
-3.2112500000000002,-0.022329669832637428
-3.21,-0.024032943340044063
-3.2087500000000002,-0.027780145056338676
-3.2075,-0.031527346772633288
-3.2062499999999998,-0.034933893787446574
-3.2050000000000001,-0.037999786100778532
-3.2037499999999999,-0.04106567841411049
-3.2025000000000001,-0.043790916025961121
-3.2012499999999999,-0.04685680833929308
-3.2000000000000002,-0.051625974160031673
-3.19875,-0.056054485279288947
-3.1974999999999998,-0.059461032294102233
-3.19625,-0.061504960502990202
-3.1949999999999998,-0.061504960502990202
-3.1937500000000001,-0.059461032294102233
-3.1924999999999999,-0.055373175876326286
-3.1912500000000001,-0.049922700652625031
-3.1899999999999999,-0.043790916025961121
-3.1887500000000002,-0.038340440802259866
-3.1875,-0.033911929683002592
-3.1862499999999998,-0.032208656175595957
-3.1850000000000001,-0.033230620280039938
-3.1837499999999999,-0.036637167294853223
-3.1825000000000001,-0.042768951921517133
-3.1812499999999999,-0.048900736548181049
-3.1800000000000002,-0.054010557070400977
-3.17875,-0.057076449383732929
-3.1775000000000002,-0.058098413488176917
-3.17625,-0.057417104085214263
-3.1749999999999998,-0.056735794682251602
-3.1737500000000001,-0.057076449383732929
-3.1724999999999999,-0.056735794682251602
-3.1712500000000001,-0.055032521174844959
-3.1699999999999999,-0.052307283562994335
-3.1687500000000002,-0.050263355354106358
-3.1675,-0.050263355354106358
-3.1662499999999998,-0.051966628861513001
-3.165,-0.055373175876326286
-3.1637499999999998,-0.058779722891139571
-3.1625000000000001,-0.061504960502990202
-3.1612499999999999,-0.063208234010396852
-3.1600000000000001,-0.062867579308915511
-3.1587499999999999,-0.060823651100027548
-3.1575000000000002,-0.057076449383732929
-3.15625,-0.052988592965956989
-3.1549999999999998,-0.049241391249662377
-3.1537500000000001,-0.047197463040774407
-3.1524999999999999,-0.047197463040774407
-3.1512500000000001,-0.049241391249662377
-3.1499999999999999,-0.051966628861513001
-3.1487500000000002,-0.054010557070400977
-3.1475,-0.05571383057780762
-3.1462500000000002,-0.056735794682251602
-3.145,-0.057076449383732929
-3.1437499999999998,-0.056395139980770274
-3.1425000000000001,-0.054351211771882305
-3.1412499999999999,-0.051285319458550346
-3.1400000000000001,-0.047878772443737061
-3.1387499999999999,-0.044472225428923776
-3.1375000000000002,-0.042087642518554479
-3.13625,-0.039703059608185175
-3.1349999999999998,-0.037999786100778532
-3.13375,-0.036977821996334551
-3.1324999999999998,-0.037318476697815878
-3.1312500000000001,-0.039362404906703848
-3.1299999999999999,-0.043450261324479794
-3.1287500000000001,-0.047878772443737061
-3.1274999999999999,-0.052647938264475662
-3.1262500000000002,-0.056735794682251602
-3.125,-0.05980168699558356
-3.1237499999999998,-0.062526924607434198
-3.1225000000000001,-0.065592816920766142
-3.1212499999999999,-0.0686587092340981
-3.1200000000000001,-0.069680673338542082
-3.1187499999999999,-0.068999363935579427
-3.1175000000000002,-0.068318054532616773
-3.11625,-0.067977399831135446
-3.1150000000000002,-0.067636745129654119
-3.11375,-0.066955435726691465
-3.1124999999999998,-0.065592816920766142
-3.1112500000000001,-0.064570852816322161
-3.1099999999999999,-0.063889543413359506
-3.1087500000000001,-0.063208234010396852
-3.1074999999999999,-0.062526924607434198
-3.1062500000000002,-0.062186269905952857
-3.105,-0.061504960502990202
-3.1037499999999998,-0.059461032294102233
-3.1025,-0.056395139980770274
-3.1012499999999998,-0.052988592965956989
-3.1000000000000001,-0.050263355354106358
-3.0987499999999999,-0.048219427145218388
-3.0975000000000001,-0.047197463040774407
-3.0962499999999999,-0.047538117742255734
-3.0950000000000002,-0.049241391249662377
-3.09375,-0.051625974160031673
-3.0924999999999998,-0.052647938264475662
-3.0912500000000001,-0.052307283562994335
-3.0899999999999999,-0.050263355354106358
-3.0887500000000001,-0.049241391249662377
-3.0874999999999999,-0.049241391249662377
-3.0862500000000002,-0.050604010055587692
-3.085,-0.052307283562994335
-3.0837500000000002,-0.055032521174844959
-3.0825,-0.057076449383732929
-3.0812499999999998,-0.057076449383732929
-3.0800000000000001,-0.055373175876326286
-3.0787499999999999,-0.052307283562994335
-3.0775000000000001,-0.048219427145218388
-3.0762499999999999,-0.045834844234849091
-3.0750000000000002,-0.044812880130405103
-3.07375,-0.045153534831886437
-3.0724999999999998,-0.046516153637811745
-3.07125,-0.049582045951143704
-3.0699999999999998,-0.052647938264475662
-3.0687500000000001,-0.055032521174844959
-3.0674999999999999,-0.056054485279288947
-3.0662500000000001,-0.056735794682251602
-3.0649999999999999,-0.057417104085214263
-3.0637500000000002,-0.05775775878669559
-3.0625,-0.05775775878669559
-3.0612499999999998,-0.057417104085214263
-3.0600000000000001,-0.056735794682251602
-3.0587499999999999,-0.056054485279288947
-3.0575000000000001,-0.054691866473363632
-3.0562499999999999,-0.053329247667438316
-3.0550000000000002,-0.051966628861513001
-3.05375,-0.050263355354106358
-3.0525000000000002,-0.049241391249662377
-3.05125,-0.048900736548181049
-3.0499999999999998,-0.048560081846699722
-3.0487500000000001,-0.047878772443737061
-3.0474999999999999,-0.04685680833929308
-3.0462500000000001,-0.045834844234849091
-3.0449999999999999,-0.044472225428923776
-3.0437500000000002,-0.04310960662299846
-3.0425,-0.04106567841411049
-3.0412499999999998,-0.037659131399297205
-3.04,-0.033230620280039938
-3.0387499999999998,-0.028120799757820003
-3.0375000000000001,-0.024032943340044063
-3.0362499999999999,-0.024032943340044063
-3.0350000000000001,-0.02846145445930133
-3.0337499999999999,-0.034933893787446574
-3.0325000000000002,-0.04106567841411049
-3.03125,-0.045153534831886437
-3.0299999999999998,-0.046516153637811745
-3.0287500000000001,-0.046175498936330418
-3.0274999999999999,-0.045834844234849091
-3.0262500000000001,-0.045153534831886437
-3.0249999999999999,-0.043450261324479794
-3.0237500000000002,-0.040043714309666509
-3.0225,-0.035615203190409242
-3.0212500000000002,-0.031186692071151961
-3.02,-0.02607687154893204
-3.0187499999999998,-0.020967051026712105
-3.0175000000000001,-0.016197885205973511
-3.0162499999999999,-0.012110028788197572
-3.0150000000000001,-0.0090441364748656133
-3.0137499999999999,-0.0063188988630149823
-3.0125000000000002,-0.0039343159526456783
-3.01125,-0.0018903877437577155
-3.0099999999999998,0.00015354046513026132
-3.00875,0.0021974686740182242
-3.0074999999999998,0.0039007421814248738
-3.0062500000000001,0.0049227062858688553
-3.0049999999999999,0.0049227062858688553
-3.0037500000000001,0.0039007421814248738
-3.0024999999999999,0.0015161592710555699
-3.0012500000000002,-0.0032530065496830241
-3,-0.010747409982272249
-2.9987499999999998,-0.019263777519305469
-2.9975000000000001,-0.026758180951894694
-2.9962499999999999,-0.032208656175595957
-2.9950000000000001,-0.03425258438448392
-2.9937499999999999,-0.033230620280039938
-2.9925000000000002,-0.031186692071151961
-2.99125,-0.028802109160782671
-2.9900000000000002,-0.027439490354857349
-2.98875,-0.026758180951894694
-2.9874999999999998,-0.027439490354857349
-2.9862500000000001,-0.03016472796670798
-2.9849999999999999,-0.033571274981521265
-2.9837500000000001,-0.037999786100778532
-2.9824999999999999,-0.044131570727442448
-2.9812500000000002,-0.050604010055587692
-2.98,-0.058098413488176917
-2.9787499999999998,-0.063548888711878165
-2.9775,-0.065592816920766142
-2.9762499999999998,-0.064911507517803488
-2.9750000000000001,-0.062526924607434198
-2.9737499999999999,-0.058098413488176917
-2.9725000000000001,-0.053669902368919643
-2.9712499999999999,-0.050944664757069019
-2.9700000000000002,-0.050944664757069019
-2.96875,-0.054691866473363632
-2.9674999999999998,-0.05980168699558356
-2.9662500000000001,-0.063889543413359506
-2.9649999999999999,-0.066955435726691465
-2.9637500000000001,-0.069340018637060755
-2.9624999999999999,-0.071383946845948731
-2.9612500000000002,-0.071383946845948731
-2.96,-0.070021328040023423
-2.9587500000000002,-0.067636745129654119
-2.9575,-0.065252162219284815
-2.9562499999999998,-0.063208234010396852
-2.9550000000000001,-0.061504960502990202
-2.9537499999999999,-0.059461032294102233
-2.9525000000000001,-0.057076449383732929
-2.9512499999999999,-0.053329247667438316
-2.9500000000000002,-0.048219427145218388
-2.94875,-0.04310960662299846
-2.9474999999999998,-0.03902175020522252
-2.94625,-0.035615203190409242
-2.9449999999999998,-0.03425258438448392
-2.9437500000000001,-0.03425258438448392
-2.9424999999999999,-0.034933893787446574
-2.9412500000000001,-0.036296512593371896
-2.9399999999999999,-0.037999786100778532
-2.9387500000000002,-0.040384369011147836
-2.9375,-0.04310960662299846
-2.9362499999999998,-0.046175498936330418
-2.9350000000000001,-0.049922700652625031
-2.9337499999999999,-0.053669902368919643
-2.9325000000000001,-0.056735794682251602
-2.9312499999999999,-0.058779722891139571
-2.9300000000000002,-0.058439068189658244
-2.92875,-0.056395139980770274
-2.9275000000000002,-0.054351211771882305
-2.92625,-0.052988592965956989
-2.9249999999999998,-0.051625974160031673
-2.9237500000000001,-0.050263355354106358
-2.9224999999999999,-0.048900736548181049
-2.9212500000000001,-0.048219427145218388
-2.9199999999999999,-0.048219427145218388
-2.9187500000000002,-0.049582045951143704
-2.9175,-0.051966628861513001
-2.9162499999999998,-0.053329247667438316
-2.915,-0.052988592965956989
-2.9137499999999998,-0.050944664757069019
-2.9125000000000001,-0.048560081846699722
-2.9112499999999999,-0.046175498936330418
-2.9100000000000001,-0.043790916025961121
-2.9087499999999999,-0.042428297220035806
-2.9075000000000002,-0.042768951921517133
-2.90625,-0.045494189533367764
-2.9049999999999998,-0.048560081846699722
-2.9037500000000001,-0.051625974160031673
-2.9024999999999999,-0.054351211771882305
-2.9012500000000001,-0.057417104085214263
-2.8999999999999999,-0.060142341697064887
-2.8987500000000002,-0.06184561520447153
-2.8975,-0.062526924607434198
-2.8962500000000002,-0.062526924607434198
-2.895,-0.061164305801508875
-2.8937499999999998,-0.057076449383732929
-2.8925000000000001,-0.049922700652625031
-2.8912499999999999,-0.041746987817073151
-2.8900000000000001,-0.033230620280039938
-2.8887499999999999,-0.025395562145969386
-2.8875000000000002,-0.018582468116342815
-2.88625,-0.013131992892641553
-2.8849999999999998,-0.010406755280790922
-2.88375,-0.0093847911763469405
-2.8824999999999998,-0.0097254458778282676
-2.8812500000000001,-0.010406755280790922
-2.8799999999999999,-0.010066100579309595
-2.8787500000000001,-0.0097254458778282676
-2.8774999999999999,-0.0090441364748656133
-2.8762500000000002,-0.0080221723704216319
-2.875,-0.0063188988630149823
-2.8737499999999998,-0.0032530065496830241
-2.8725000000000001,-0.00052776893783239298
-2.8712499999999999,0.0021974686740182242
-2.8700000000000001,0.0035600874799435467
-2.8687499999999999,0.0052633609873501824
-2.8675000000000002,0.0083292533006821406
-2.86625,0.012076455016976753
-2.8650000000000002,0.015483002031790039
-2.86375,0.01820823964364067
-2.8624999999999998,0.021274131956972628
-2.8612500000000001,0.025021333673267226
-2.8599999999999999,0.028427880688080526
-2.8587500000000001,0.03081246359844983
-2.8574999999999999,0.032515737105856451
-2.8562500000000002,0.031834427702893797
-2.855,0.028427880688080526
-2.8537499999999998,0.021955441359935282
-2.8525,0.013098419121420735
-2.8512499999999998,0.0011755045695742428
-2.8500000000000001,-0.014494611698566862
-2.8487499999999999,-0.033571274981521265
-2.8475000000000001,-0.055032521174844959
-2.8462499999999999,-0.078197040875575302
-2.8450000000000002,-0.10238352468074963
-2.84375,-0.12725131788888661
-2.8424999999999998,-0.1524597657985049
-2.8412500000000001,-0.17664624960367925
-2.8399999999999999,-0.19912945990144693
-2.8387500000000001,-0.21786546848291999
-2.8374999999999999,-0.23455754885550509
-2.8362500000000002,-0.24818373691475823
-2.835,-0.25908468736216073
-2.8337500000000002,-0.26691974549623132
-2.8325,-0.26998563780956325
-2.8312499999999998,-0.26896367370511925
-2.8300000000000001,-0.26453516258586196
-2.8287499999999999,-0.25704075915327274
-2.8275000000000001,-0.24750242751179558
-2.8262499999999999,-0.23557951295994906
-2.8250000000000002,-0.22195332490069591
-2.82375,-0.20900844624440545
-2.8224999999999998,-0.19742618639404028
-2.82125,-0.18618458124515644
-2.8199999999999998,-0.17562428549923526
-2.8187500000000001,-0.16574529915627673
-2.8174999999999999,-0.15722893161924351
-2.8162500000000001,-0.15075649229109828
-2.8149999999999999,-0.14462470766443436
-2.8137500000000002,-0.13713030423184513
-2.8125,-0.12963590079925591
-2.8112499999999998,-0.12146018796370402
-2.8100000000000001,-0.11328447512815214
-2.8087499999999999,-0.10579007169556291
-2.8075000000000001,-0.099317632367417669
-2.8062499999999999,-0.092504538337791098
-2.8050000000000002,-0.084328825502239219
-2.80375,-0.075131148562243344
-2.8025000000000002,-0.065252162219284815
-2.80125,-0.055373175876326286
-2.7999999999999998,-0.046516153637811745
-2.7987500000000001,-0.038340440802259866
-2.7974999999999999,-0.031868001474114616
-2.7962500000000001,-0.026758180951894694
-2.7949999999999999,-0.021989015131156101
-2.7937500000000002,-0.017219849310417493
-2.7925,-0.013131992892641553
-2.7912499999999998,-0.0093847911763469405
-2.79,-0.0052969347585710008
-2.7887499999999998,-0.0012090783407950612
-2.7875000000000001,0.0025381233754995514
-2.7862499999999999,0.0052633609873501824
-2.7850000000000001,0.0073072891962381592
-2.7837499999999999,0.0079885985992008135
-2.7825000000000002,0.0086699080021634678
-2.78125,0.0090105627036447949
-2.7799999999999998,0.0096918721066074492
-2.7787500000000001,0.011735800315495426
-2.7774999999999999,0.015483002031790039
-2.7762500000000001,0.019570858449565978
-2.7749999999999999,0.022636750762897936
-2.7737500000000002,0.023999369568823259
-2.7725,0.024680678971785913
-2.7712500000000002,0.025702643076229909
-2.77,0.02740591658363653
-2.7687499999999998,0.028427880688080526
-2.7675000000000001,0.028087225986599185
-2.7662499999999999,0.026043297777711222
-2.7650000000000001,0.022636750762897936
-2.7637499999999999,0.019230203748084651
-2.7625000000000002,0.016164311434752693
-2.76125,0.014461037927346057
-2.7599999999999998,0.01412038322586473
-2.75875,0.013779728524383403
-2.7574999999999998,0.013779728524383403
-2.7562500000000001,0.013439073822902076
-2.7549999999999999,0.013098419121420735
-2.7537500000000001,0.012757764419939407
-2.7524999999999999,0.012757764419939407
-2.7512500000000002,0.012757764419939407
-2.75,0.012076455016976753
-2.7487499999999998,0.011054490912532772
-2.7475000000000001,0.011054490912532772
-2.7462499999999999,0.011735800315495426
-2.7450000000000001,0.013098419121420735
-2.7437499999999999,0.015142347330308711
-2.7425000000000002,0.018548894345121997
-2.74125,0.023658714867341918
-2.7400000000000002,0.030131154195487175
-2.73875,0.036603593523632405
-2.7374999999999998,0.041032104642889672
-2.7362500000000001,0.042735378150296321
-2.7349999999999999,0.041372759344371013
-2.7337500000000001,0.037966212329557714
-2.7324999999999999,0.032856391807337793
-2.7312500000000002,0.02740591658363653
-2.73,0.022977405464379264
-2.7287499999999998,0.020933477255491301
-2.7275,0.019911513151047305
-2.7262499999999998,0.019911513151047305
-2.7250000000000001,0.020252167852528632
-2.7237499999999999,0.021274131956972628
-2.7225000000000001,0.022296096061416609
-2.7212499999999999,0.022977405464379264
-2.7200000000000002,0.022977405464379264
-2.71875,0.021614786658453955
-2.7174999999999998,0.019570858449565978
-2.7162500000000001,0.015823656733271366
-2.7149999999999999,0.01412038322586473
-2.7137500000000001,0.014801692628827384
-2.7124999999999999,0.01820823964364067
-2.7112500000000002,0.023658714867341918
-2.71,0.031153118299931143
-2.7087500000000002,0.038988176434001709
-2.7075,0.045119961060665625
-2.7062499999999998,0.050229781582885547
-2.7050000000000001,0.053976983299180159
-2.7037499999999999,0.056702220911030776
-2.7025000000000001,0.058405494418437426
-2.7012499999999999,0.059768113224362734
-2.7000000000000002,0.060449422627325389
-2.69875,0.060108767925844075
-2.6974999999999998,0.059768113224362734
-2.69625,0.059768113224362734
-2.6949999999999998,0.060449422627325389
-2.6937500000000001,0.06079007732880673
-2.6924999999999999,0.061130732030288071
-2.6912500000000001,0.061130732030288071
-2.6899999999999999,0.060108767925844075
-2.6887500000000002,0.058746149119918767
-2.6875,0.057724185015474772
-2.6862499999999998,0.057724185015474772
-2.6850000000000001,0.058746149119918767
-2.6837499999999999,0.060449422627325389
-2.6825000000000001,0.061812041433250725
-2.6812499999999999,0.063515314940657347
-2.6800000000000002,0.065218588448063997
-2.67875,0.068284480761395955
-2.6775000000000002,0.073394301283615876
-2.67625,0.079526085910279792
-2.6749999999999998,0.085317215835462396
-2.6737500000000001,0.091108345760644971
-2.6724999999999999,0.095536856879902238
-2.6712500000000001,0.098602749193234196
-2.6699999999999999,0.099965367999159505
-2.6687500000000002,0.099624713297678191
-2.6675,0.098262094491752855
-2.6662499999999998,0.095877511581383579
-2.665,0.092130309865088966
-2.6637499999999998,0.088383108148794354
-2.6625000000000001,0.087361144044350358
-2.6612499999999999,0.088383108148794354
-2.6600000000000001,0.090086381656200976
-2.6587499999999999,0.091789655163607625
-2.6575000000000002,0.094174238073976929
-2.65625,0.097240130387308887
-2.6549999999999998,0.10200929620804747
-2.6537500000000001,0.10780042613323007
-2.6524999999999999,0.11291024665544999
-2.6512500000000001,0.11699810307322595
-2.6499999999999999,0.11972334068507656
-2.6487500000000002,0.12108595949100187
-2.6475,0.12108595949100187
-2.6462500000000002,0.12074530478952056
-2.645,0.12040465008803922
-2.6437499999999998,0.11972334068507656
-2.6425000000000001,0.11870137658063257
-2.6412499999999999,0.1176794124761886
-2.6400000000000001,0.1152948295658193
-2.6387499999999999,0.11154762784952468
-2.6375000000000002,0.10780042613323007
-2.63625,0.10541584322286077
-2.6349999999999998,0.10507518852137943
-2.63375,0.10575649792434208
-2.6324999999999998,0.10541584322286077
-2.6312500000000001,0.10371256971545412
-2.6299999999999999,0.1009873321036035
-2.6287500000000001,0.096218166282864892
-2.6274999999999999,0.09076769105916363
-2.6262500000000002,0.084635906432499713
-2.625,0.079526085910279792
-2.6237499999999998,0.076119538895466521
-2.6225000000000001,0.073394301283615876
-2.6212499999999999,0.0710097183732466
-2.6200000000000001,0.0676031713584333
-2.6187499999999999,0.064196624343620029
-2.6175000000000002,0.059427458522881421
-2.61625,0.05261436449325485
-2.6150000000000002,0.04409799695622163
-2.61375,0.036603593523632405
-2.6124999999999998,0.029790499494005834
-2.6112500000000001,0.023999369568823259
-2.6099999999999999,0.019230203748084651
-2.6087500000000001,0.014801692628827384
-2.6074999999999999,0.0090105627036447949
-2.6062500000000002,0.0021974686740182242
-2.605,-0.0052969347585710008
-2.6037499999999998,-0.012791338191160226
-2.6025,-0.019604432220786797
-2.6012499999999998,-0.025736216847450713
-2.6000000000000001,-0.032549310877077284
-2.5987499999999999,-0.040043714309666509
-2.5975000000000001,-0.049241391249662377
-2.5962499999999999,-0.058098413488176917
-2.5950000000000002,-0.065592816920766142
-2.59375,-0.071383946845948731
-2.5924999999999998,-0.076493767368168653
-2.5912500000000001,-0.081603587890388588
-2.5899999999999999,-0.086372753711127181
-2.5887500000000001,-0.090460610128903121
-2.5874999999999999,-0.094548466546679061
-2.5862500000000002,-0.099317632367417669
-2.585,-0.10476810759111892
-2.5837500000000002,-0.10987792811333885
-2.5825,-0.11328447512815214
-2.5812499999999998,-0.11669102214296542
-2.5800000000000001,-0.12009756915777871
-2.5787499999999999,-0.12384477087407332
-2.5775000000000001,-0.1282732819933306
-2.5762499999999999,-0.13167982900814387
-2.5750000000000002,-0.13304244781406918
-2.57375,-0.13372375721703184
-2.5724999999999998,-0.13440506661999452
-2.57125,-0.13508637602295714
-2.5699999999999998,-0.13678964953036379
-2.5687500000000001,-0.13951488714221444
-2.5674999999999999,-0.14224012475406506
-2.5662500000000001,-0.14394339826147171
-2.5649999999999999,-0.14428405296295302
-2.5637500000000002,-0.14462470766443436
-2.5625,-0.14598732647035967
-2.5612499999999998,-0.14803125467924766
-2.5600000000000001,-0.14973452818665428
-2.5587499999999999,-0.15041583758961694
-2.5575000000000001,-0.15041583758961694
-2.5562499999999999,-0.14905321878369163
-2.5550000000000002,-0.14666863587332288
-2.55375,-0.14326208885850905
-2.5525000000000002,-0.1395148871422153
-2.55125,-0.13576768542591983
-2.5499999999999998,-0.13338310251555036
-2.5487500000000001,-0.13270179311258787
-2.5474999999999999,-0.13372375721703184
-2.5462500000000001,-0.13644899482888248
-2.5449999999999999,-0.13951488714221444
-2.5437500000000002,-0.14258077945554568
-2.5425,-0.14598732647035967
-2.5412499999999998,-0.14871256408221059
-2.54,-0.15007518288813562
-2.5387499999999998,-0.1500751828881354
-2.5375000000000001,-0.14905321878369163
-2.5362499999999999,-0.14700929057480366
-2.5350000000000001,-0.14530601706739701
-2.5337499999999999,-0.14326208885850905
-2.5325000000000002,-0.1408775059481403
-2.53125,-0.13883357773925176
-2.5299999999999998,-0.13678964953036302
-2.5287500000000001,-0.13338310251555052
-2.5274999999999999,-0.12963590079925591
-2.5262500000000001,-0.12554804438147996
-2.5249999999999999,-0.12111953326222269
-2.5237500000000002,-0.11737233154592892
-2.5225,-0.11362512982963346
-2.5212500000000002,-0.1112405469192647
-2.52,-0.11124054691926416
-2.5187499999999998,-0.11396578453111596
-2.5175000000000001,-0.11907560505333473
-2.5162499999999999,-0.1248667349785173
-2.5150000000000001,-0.12963590079925591
-2.5137499999999999,-0.13202048370962521
-2.5125000000000002,-0.13202048370962521
-2.51125,-0.12997655550073722
-2.5099999999999998,-0.12657000848592287
-2.50875,-0.12180084266518534
-2.5074999999999998,-0.11771298624740878
-2.5062500000000001,-0.11498774863555877
-2.5049999999999999,-0.11328447512815214
-2.5037500000000001,-0.11260316572518948
-2.5024999999999999,-0.11192185632222681
-2.5012500000000002,-0.11158120162074557
-2.5,-0.11055923751630151
-2.4987499999999998,-0.10885596400889432
-2.4975000000000001,-0.10647138109852557
-2.4962499999999999,-0.1020428699792683
-2.4950000000000001,-0.097273704158529692
-2.4937499999999999,-0.091823228934828444
-2.4925000000000002,-0.08773537251705342
-2.49125,-0.085010134905201873
-2.4900000000000002,-0.084328825502239371
-2.48875,-0.084669480203720546
-2.4874999999999998,-0.085691444308164832
-2.4862500000000001,-0.087054063114089836
-2.4849999999999999,-0.088757336621496485
-2.4837500000000001,-0.091141919531865789
-2.4824999999999999,-0.095229775949641729
-2.4812500000000002,-0.099658287068897983
-2.48,-0.10476810759111892
-2.4787499999999998,-0.10953727341185822
-2.4775,-0.11260316572518948
-2.4762499999999998,-0.11362512982963331
-2.4750000000000001,-0.11294382042667081
-2.4737499999999999,-0.11089989221778283
-2.4725000000000001,-0.10851530930741354
-2.4712499999999999,-0.10510876229260024
-2.4700000000000002,-0.10238352468075025
-2.46875,-0.10136156057630563
-2.4674999999999998,-0.10204286997926876
-2.4662500000000001,-0.10408679818815626
-2.4649999999999999,-0.10681203580000689
-2.4637500000000001,-0.10987792811333885
-2.4624999999999999,-0.11226251102370816
-2.4612500000000002,-0.11294382042667066
-2.46,-0.11260316572518948
-2.4587500000000002,-0.11158120162074572
-2.4575,-0.11055923751630151
-2.4562499999999998,-0.10885596400889447
-2.4550000000000001,-0.10715269050148822
-2.4537499999999999,-0.10647138109852557
-2.4525000000000001,-0.10681203580000689
-2.4512499999999999,-0.10783399990445088
-2.4500000000000002,-0.10851530930741339
-2.44875,-0.1081746546059322
-2.4474999999999998,-0.10715269050148798
-2.44625,-0.10613072639704424
-2.4449999999999998,-0.10442745288963681
-2.4437500000000001,-0.1010209058748243
-2.4424999999999999,-0.097955013561492346
-2.4412500000000001,-0.095570430651123056
-2.4399999999999999,-0.095229775949641729
-2.4387500000000002,-0.095229775949641729
-2.4375,-0.094548466546679061
-2.4362499999999998,-0.092845193039272425
-2.4350000000000001,-0.090801264830384448
-2.4337499999999999,-0.089779300725940467
-2.4325000000000001,-0.089097991322977813
-2.4312499999999999,-0.088416681920015158
-2.4300000000000002,-0.086713408412608509
-2.42875,-0.083988170800757878
-2.4275000000000002,-0.080240969084463265
-2.42625,-0.077175076771131307
-2.4249999999999998,-0.075131148562243344
-2.4237500000000001,-0.07274656565187404
-2.4224999999999999,-0.070021328040023423
-2.4212500000000001,-0.065592816920766142
-2.4199999999999999,-0.060482996398546214
-2.4187500000000002,-0.056054485279288947
-2.4175,-0.052988592965956989
-2.4162499999999998,-0.050944664757069019
-2.415,-0.049582045951143704
-2.4137499999999998,-0.048219427145218388
-2.4125000000000001,-0.047197463040774407
-2.4112499999999999,-0.045834844234849091
-2.4100000000000001,-0.044812880130405103
-2.4087499999999999,-0.044472225428923776
-2.4075000000000002,-0.045834844234849091
-2.40625,-0.047538117742255734
-2.4049999999999998,-0.048900736548181049
-2.4037500000000001,-0.049241391249662377
-2.4024999999999999,-0.050263355354106358
-2.4012500000000001,-0.052647938264475662
-2.3999999999999999,-0.056395139980770274
-2.3987500000000002,-0.06184561520447153
-2.3975,-0.068318054532616773
-2.3962500000000002,-0.07274656565187404
-2.395,-0.074790493860762017
-2.3937499999999998,-0.073768529756318035
-2.3925000000000001,-0.069680673338542082
-2.3912499999999999,-0.063208234010396852
-2.3900000000000001,-0.057076449383732929
-2.3887499999999999,-0.052988592965956989
-2.3875000000000002,-0.050944664757069019
-2.38625,-0.050944664757069019
-2.3849999999999998,-0.052307283562994335
-2.38375,-0.053669902368919643
-2.3824999999999998,-0.053669902368919643
-2.3812500000000001,-0.052647938264475662
-2.3799999999999999,-0.050944664757069019
-2.3787500000000001,-0.050263355354106358
-2.3774999999999999,-0.050263355354106358
-2.3762500000000002,-0.050944664757069019
-2.375,-0.050944664757069019
-2.3737499999999998,-0.050263355354106358
-2.3725000000000001,-0.050263355354106358
-2.3712499999999999,-0.051625974160031673
-2.3700000000000001,-0.054010557070400977
-2.3687499999999999,-0.057076449383732929
-2.3675000000000002,-0.05980168699558356
-2.36625,-0.060823651100027548
-2.3650000000000002,-0.061164305801508875
-2.36375,-0.060482996398546214
-2.3624999999999998,-0.058779722891139571
-2.3612500000000001,-0.056735794682251602
-2.3599999999999999,-0.055032521174844959
-2.3587500000000001,-0.053669902368919643
-2.3574999999999999,-0.054010557070400977
-2.3562500000000002,-0.055373175876326286
-2.355,-0.058098413488176917
-2.3537499999999998,-0.061504960502990202
-2.3525,-0.065592816920766142
-2.3512499999999998,-0.069680673338542082
-2.3500000000000001,-0.073427875054836694
-2.3487499999999999,-0.076153112666687325
-2.3475000000000001,-0.077856386174093975
-2.3462499999999999,-0.079219004980019284
-2.3450000000000002,-0.080581623785944606
-2.34375,-0.080922278487425919
-2.3424999999999998,-0.079900314382981938
-2.3412500000000001,-0.078878350278537956
-2.3399999999999999,-0.077515731472612648
-2.3387500000000001,-0.07683442206964998
-2.3374999999999999,-0.076153112666687325
-2.3362500000000002,-0.075471803263724671
-2.335,-0.074790493860762017
-2.3337500000000002,-0.07444983915928069
-2.3325,-0.073768529756318035
-2.3312499999999998,-0.073087220353355367
-2.3300000000000001,-0.07274656565187404
-2.3287499999999999,-0.072405910950392713
-2.3275000000000001,-0.072065256248911386
-2.3262499999999999,-0.071383946845948731
-2.3250000000000002,-0.070702637442986077
-2.32375,-0.070361982741504736
-2.3224999999999998,-0.071724601547430059
-2.32125,-0.074109184457799349
-2.3199999999999998,-0.077515731472612648
-2.3187500000000001,-0.079900314382981938
-2.3174999999999999,-0.080581623785944606
-2.3162500000000001,-0.080581623785944606
-2.3149999999999999,-0.080240969084463265
-2.3137500000000002,-0.078878350278537956
-2.3125,-0.07683442206964998
-2.3112499999999998,-0.07444983915928069
-2.3100000000000001,-0.072405910950392713
-2.3087499999999999,-0.070702637442986077
-2.3075000000000001,-0.070361982741504736
-2.3062499999999999,-0.072065256248911386
-2.3050000000000002,-0.073427875054836694
-2.30375,-0.074109184457799349
-2.3025000000000002,-0.074109184457799349
-2.30125,-0.07444983915928069
-2.2999999999999998,-0.075471803263724671
-2.2987500000000001,-0.076493767368168653
-2.2974999999999999,-0.077856386174093975
-2.2962500000000001,-0.079219004980019284
-2.2949999999999999,-0.081944242591869915
-2.2937500000000002,-0.084669480203720546
-2.2925,-0.087394717815571163
-2.2912499999999998,-0.08943864602445914
-2.29,-0.090801264830384448
-2.2887499999999998,-0.091823228934828444
-2.2875000000000001,-0.091823228934828444
-2.2862499999999999,-0.091482574233347103
-2.2850000000000001,-0.091823228934828444
-2.2837499999999999,-0.092163883636309771
-2.2825000000000002,-0.092163883636309771
-2.28125,-0.091141919531865789
-2.2799999999999998,-0.089779300725940467
-2.2787500000000001,-0.088076027218533831
-2.2774999999999999,-0.0853507896066832
-2.2762500000000001,-0.081603587890388588
-2.2749999999999999,-0.077175076771131307
-2.2737500000000002,-0.073087220353355367
-2.2725,-0.070021328040023423
-2.2712500000000002,-0.067636745129654119
-2.27,-0.06627412632372881
-2.2687499999999998,-0.065933471622247469
-2.2675000000000001,-0.066955435726691465
-2.2662499999999999,-0.0686587092340981
-2.2650000000000001,-0.0686587092340981
-2.2637499999999999,-0.067977399831135446
-2.2625000000000002,-0.066614781025210124
-2.26125,-0.065252162219284815
-2.2599999999999998,-0.064911507517803488
-2.25875,-0.064911507517803488
-2.2574999999999998,-0.06423019811484082
-2.2562500000000001,-0.062526924607434198
-2.2549999999999999,-0.05980168699558356
-2.2537500000000001,-0.05775775878669559
-2.2524999999999999,-0.056735794682251602
-2.2512500000000002,-0.057076449383732929
-2.25,-0.058098413488176917
-2.2487499999999998,-0.05980168699558356
-2.2475000000000001,-0.06184561520447153
-2.2462499999999999,-0.064570852816322161
-2.2450000000000001,-0.067296090428172778
-2.2437499999999999,-0.069340018637060755
-2.2425000000000002,-0.069680673338542082
-2.24125,-0.069340018637060755
-2.2400000000000002,-0.069340018637060755
-2.23875,-0.069340018637060755
-2.2374999999999998,-0.069340018637060755
-2.2362500000000001,-0.0686587092340981
-2.2349999999999999,-0.066614781025210124
-2.2337500000000001,-0.063548888711878165
-2.2324999999999999,-0.05980168699558356
-2.2312500000000002,-0.056395139980770274
-2.23,-0.052307283562994335
-2.2287499999999998,-0.048560081846699722
-2.2275,-0.046175498936330418
-2.2262499999999998,-0.046175498936330418
-2.2250000000000001,-0.047538117742255734
-2.2237499999999999,-0.049582045951143704
-2.2225000000000001,-0.049582045951143704
-2.2212499999999999,-0.048219427145218388
-2.2200000000000002,-0.047197463040774407
-2.21875,-0.047878772443737061
-2.2174999999999998,-0.050604010055587692
-2.2162500000000001,-0.054691866473363632
-2.2149999999999999,-0.059120377592620905
-2.2137500000000001,-0.063889543413359506
-2.2124999999999999,-0.067636745129654119
-2.2112500000000002,-0.069340018637060755
-2.21,-0.068999363935579427
-2.2087500000000002,-0.066955435726691465
-2.2075,-0.063889543413359506
-2.2062499999999998,-0.061164305801508875
-2.2050000000000001,-0.060142341697064887
-2.2037499999999999,-0.060482996398546214
-2.2025000000000001,-0.062186269905952857
-2.2012499999999999,-0.064911507517803488
-2.2000000000000002,-0.067977399831135446
-2.19875,-0.071383946845948731
-2.1974999999999998,-0.073768529756318035
-2.19625,-0.075812457965205998
-2.1949999999999998,-0.076153112666687325
-2.1937500000000001,-0.074109184457799349
-2.1924999999999999,-0.070361982741504736
-2.1912500000000001,-0.065592816920766142
-2.1899999999999999,-0.061164305801508875
-2.1887500000000002,-0.058098413488176917
-2.1875,-0.05775775878669559
-2.1862499999999998,-0.059461032294102233
-2.1850000000000001,-0.062526924607434198
-2.1837499999999999,-0.065592816920766142
-2.1825000000000001,-0.067296090428172778
-2.1812499999999999,-0.066614781025210124
-2.1800000000000002,-0.064911507517803488
-2.17875,-0.062186269905952857
-2.1775000000000002,-0.059120377592620905
-2.17625,-0.056054485279288947
-2.1749999999999998,-0.054010557070400977
-2.1737500000000001,-0.053669902368919643
-2.1724999999999999,-0.053669902368919643
-2.1712500000000001,-0.053669902368919643
-2.1699999999999999,-0.052988592965956989
-2.1687500000000002,-0.052307283562994335
-2.1675,-0.053329247667438316
-2.1662499999999998,-0.054351211771882305
-2.165,-0.055373175876326286
-2.1637499999999998,-0.054691866473363632
-2.1625000000000001,-0.053329247667438316
-2.1612499999999999,-0.050263355354106358
-2.1600000000000001,-0.045494189533367764
-2.1587499999999999,-0.040043714309666509
-2.1575000000000002,-0.034593239085965247
-2.15625,-0.030505382668189307
-2.1549999999999998,-0.027780145056338676
-2.1537500000000001,-0.027098835653376022
-2.1524999999999999,-0.027098835653376022
-2.1512500000000001,-0.02607687154893204
-2.1499999999999999,-0.024373598041525391
-2.1487500000000002,-0.022670324534118755
-2.1475,-0.021307705728193432
-2.1462500000000002,-0.020285741623749451
-2.145,-0.018923122817824142
-2.1437499999999998,-0.01756050401189882
-2.1425000000000001,-0.016879194608936166
-2.1412499999999999,-0.01756050401189882
-2.1400000000000001,-0.019263777519305469
-2.1387499999999999,-0.020967051026712105
-2.1375000000000002,-0.024373598041525391
-2.13625,-0.03016472796670798
-2.1349999999999998,-0.037318476697815878
-2.13375,-0.045153534831886437
-2.1324999999999998,-0.052647938264475662
-2.1312500000000001,-0.058779722891139571
-2.1299999999999999,-0.061164305801508875
-2.1287500000000001,-0.060482996398546214
-2.1274999999999999,-0.05775775878669559
-2.1262500000000002,-0.055373175876326286
-2.125,-0.054351211771882305
-2.1237499999999998,-0.054010557070400977
-2.1225000000000001,-0.052988592965956989
-2.1212499999999999,-0.051625974160031673
-2.1200000000000001,-0.050263355354106358
-2.1187499999999999,-0.050263355354106358
-2.1175000000000002,-0.052988592965956989
-2.11625,-0.058098413488176917
-2.1150000000000002,-0.062867579308915511
-2.11375,-0.065933471622247469
-2.1124999999999998,-0.0686587092340981
-2.1112500000000001,-0.069680673338542082
-2.1099999999999999,-0.069340018637060755
-2.1087500000000001,-0.067636745129654119
-2.1074999999999999,-0.065592816920766142
-2.1062500000000002,-0.064911507517803488
-2.105,-0.065252162219284815
-2.1037499999999998,-0.06627412632372881
-2.1025,-0.068318054532616773
-2.1012499999999998,-0.070702637442986077
-2.1000000000000001,-0.072405910950392713
-2.0987499999999999,-0.073768529756318035
-2.0975000000000001,-0.074109184457799349
-2.0962499999999999,-0.073087220353355367
-2.0950000000000002,-0.071724601547430059
-2.09375,-0.070361982741504736
-2.0924999999999998,-0.070702637442986077
-2.0912500000000001,-0.070702637442986077
-2.0899999999999999,-0.069680673338542082
-2.0887500000000001,-0.067636745129654119
-2.0874999999999999,-0.06627412632372881
-2.0862500000000002,-0.065592816920766142
-2.085,-0.066614781025210124
-2.0837500000000002,-0.069680673338542082
-2.0825,-0.073768529756318035
-2.0812499999999998,-0.07683442206964998
-2.0800000000000001,-0.077515731472612648
-2.0787499999999999,-0.076153112666687325
-2.0775000000000001,-0.074109184457799349
-2.0762499999999999,-0.072405910950392713
-2.0750000000000002,-0.070361982741504736
-2.07375,-0.067977399831135446
-2.0724999999999998,-0.065933471622247469
-2.07125,-0.064911507517803488
-2.0699999999999998,-0.065252162219284815
-2.0687500000000001,-0.065933471622247469
-2.0674999999999999,-0.066955435726691465
-2.0662500000000001,-0.068318054532616773
-2.0649999999999999,-0.070021328040023423
-2.0637500000000002,-0.071043292144467404
-2.0625,-0.070361982741504736
-2.0612499999999998,-0.067296090428172778
-2.0600000000000001,-0.063548888711878165
-2.0587499999999999,-0.059120377592620905
-2.0575000000000001,-0.05571383057780762
-2.0562499999999999,-0.052988592965956989
-2.0550000000000002,-0.050263355354106358
-2.05375,-0.047538117742255734
-2.0525000000000002,-0.044131570727442448
-2.05125,-0.039362404906703848
-2.0499999999999998,-0.033230620280039938
-2.0487500000000001,-0.025395562145969386
-2.0474999999999999,-0.016879194608936166
-2.0462500000000001,-0.0080221723704216319
-2.0449999999999999,0.00083484986809291561
-2.0437500000000002,0.0090105627036447949
-2.0425,0.014461037927346057
-2.0412499999999998,0.017867584942159342
-2.04,0.018548894345121997
-2.0387499999999998,0.017526930240678015
-2.0375000000000001,0.014801692628827384
-2.0362499999999999,0.011395145614014099
-2.0350000000000001,0.0073072891962381592
-2.0337499999999999,0.0025381233754995514
-2.0325000000000002,-0.0012090783407950612
-2.03125,-0.0039343159526456783
-2.0299999999999998,-0.005637589460052328
-2.0287500000000001,-0.0073408629674589637
-2.0274999999999999,-0.0087034817733842862
-2.0262500000000001,-0.0093847911763469405
-2.0249999999999999,-0.0080221723704216319
-2.0237500000000002,-0.0052969347585710008
-2.0225,-0.0022310424452390426
-2.0212500000000002,0.00083484986809291561
-2.02,0.0039007421814248738
-2.0187499999999998,0.0069666344947568321
-2.0175000000000001,0.01003252680808879
-2.0162499999999999,0.013098419121420735
-2.0150000000000001,0.014801692628827384
-2.0137499999999999,0.01412038322586473
-2.0125000000000002,0.011735800315495426
-2.01125,0.0069666344947568321
-2.0099999999999998,-0.00086842363931373401
-2.00875,-0.011769374086716244
-2.0074999999999998,-0.02607687154893204
-2.0062500000000001,-0.04310960662299846
-2.0049999999999999,-0.06423019811484082
-2.0037500000000001,-0.088076027218533831
-2.0024999999999999,-0.11294382042667081
-2.0012500000000002,-0.13849292303777044
-2,-0.16336071624590742
-1.99875,-0.18754720005108175
-1.9975000000000001,-0.20900844624440545
-1.9962500000000001,-0.22740380012439718
-1.9950000000000001,-0.24375522579550096
-1.9937499999999999,-0.25772206855623542
-1.9924999999999999,-0.26964498310808194
-1.99125,-0.27782069594363379
-1.99,-0.28122724295844709
-1.98875,-0.27952396945104041
-1.9875,-0.27271087542141387
-1.9862500000000001,-0.26180992497401134
-1.9850000000000001,-0.24886504631772088
-1.9837499999999999,-0.23523885825846774
-1.9824999999999999,-0.22229397960217726
-1.98125,-0.20866779154292411
-1.98,-0.19333832997626432
-1.97875,-0.17630559490219791
-1.9775,-0.1592728598281315
-1.9762500000000001,-0.14292143415702771
-1.9750000000000001,-0.12691066318740526
-1.9737499999999999,-0.11260316572518948
-1.9724999999999999,-0.099658287068898996
-1.9712499999999999,-0.08943864602445914
-1.97,-0.081603587890388588
-1.96875,-0.075131148562243344
-1.9675,-0.069340018637060755
-1.9662500000000001,-0.063889543413359506
-1.9650000000000001,-0.057417104085214263
-1.9637500000000001,-0.049922700652625031
-1.9624999999999999,-0.04310960662299846
-1.9612499999999999,-0.036296512593371896
-1.96,-0.030505382668189307
-1.95875,-0.024714252743006718
-1.9575,-0.020285741623749451
-1.95625,-0.016538539907454838
-1.9550000000000001,-0.01517592110152953
-1.9537500000000001,-0.015516575803010857
-1.9524999999999999,-0.016538539907454838
-1.9512499999999999,-0.018241813414861488
-1.95,-0.019604432220786797
-1.94875,-0.019945086922268124
-1.9475,-0.018582468116342815
-1.94625,-0.015516575803010857
-1.9450000000000001,-0.012110028788197572
-1.9437500000000001,-0.0090441364748656133
-1.9424999999999999,-0.005637589460052328
-1.9412499999999999,-0.0025716971467203698
-1.9399999999999999,0.0015161592710555699
-1.93875,0.0059446703903128367
-1.9375,0.0090105627036447949
-1.93625,0.010373181509570117
-1.9350000000000001,0.011054490912532772
-1.9337500000000001,0.011735800315495426
-1.9325000000000001,0.012757764419939407
-1.9312499999999999,0.014461037927346057
-1.9299999999999999,0.01650496613623402
-1.92875,0.017526930240678015
-1.9275,0.015142347330308711
-1.92625,0.011395145614014099
-1.925,0.0073072891962381592
-1.9237500000000001,0.0039007421814248738
-1.9225000000000001,0.0025381233754995514
-1.9212499999999999,0.0028787780769808785
-1.9199999999999999,0.0052633609873501824
-1.91875,0.0086699080021634678
-1.9175,0.012076455016976753
-1.91625,0.015142347330308711
-1.915,0.018548894345121997
-1.9137500000000001,0.021274131956972628
-1.9125000000000001,0.023658714867341918
-1.9112499999999999,0.025702643076229909
-1.9099999999999999,0.026383952479192563
-1.9087499999999999,0.027065261882155217
-1.9075,0.028087225986599185
-1.90625,0.029790499494005834
-1.905,0.031153118299931143
-1.9037500000000001,0.032515737105856451
-1.9025000000000001,0.034559665314744442
-1.9012500000000001,0.036262938822151092
-1.8999999999999999,0.0376255576280764
-1.8987499999999999,0.038988176434001709
-1.8975,0.039669485836964363
-1.89625,0.040350795239927018
-1.895,0.041713414045852326
-1.89375,0.043757342254740317
-1.8925000000000001,0.046141925165109593
-1.8912500000000001,0.049207817478441551
-1.8899999999999999,0.051933055090292196
-1.8887499999999999,0.053976983299180159
-1.8875,0.0543176380006615
-1.88625,0.052273709791773509
-1.885,0.048526508075478897
-1.88375,0.043757342254740317
-1.8825000000000001,0.038988176434001709
-1.8812500000000001,0.034900320016225755
-1.8799999999999999,0.030471808896968489
-1.8787499999999999,0.026043297777711222
-1.8774999999999999,0.022636750762897936
-1.87625,0.021274131956972628
-1.875,0.021955441359935282
-1.87375,0.022636750762897936
-1.8725000000000001,0.023318060165860591
-1.8712500000000001,0.024340024270304586
-1.8700000000000001,0.026724607180673876
-1.8687499999999999,0.030131154195487175
-1.8674999999999999,0.033878355911781788
-1.86625,0.0376255576280764
-1.865,0.040350795239927018
-1.86375,0.04239472344881498
-1.8625,0.044438651657702971
-1.8612500000000001,0.046141925165109593
-1.8600000000000001,0.046823234568072275
-1.8587499999999999,0.046823234568072275
-1.8574999999999999,0.046482579866590934
-1.85625,0.04580127046362828
-1.855,0.045460615762146939
-1.85375,0.045460615762146939
-1.8525,0.04580127046362828
-1.8512500000000001,0.046482579866590934
-1.8500000000000001,0.048867162776960238
-1.8487499999999999,0.051933055090292196
-1.8474999999999999,0.055339602105105468
-1.8462499999999999,0.057383530313993458
-1.845,0.058746149119918767
-1.84375,0.06079007732880673
-1.8425,0.063174660239176034
-1.8412500000000001,0.065559243149545338
-1.8400000000000001,0.067943826059914642
-1.8387500000000001,0.0710097183732466
-1.8374999999999999,0.073394301283615876
-1.8362499999999999,0.074416265388059871
-1.835,0.074416265388059871
-1.83375,0.073734955985097217
-1.8325,0.073394301283615876
-1.83125,0.073734955985097217
-1.8300000000000001,0.074756920089541212
-1.8287500000000001,0.076460193596947834
-1.8274999999999999,0.078163467104354484
-1.8262499999999999,0.079866740611761133
-1.825,0.082251323522130437
-1.82375,0.085317215835462396
-1.8225,0.089405072253238321
-1.82125,0.092811619268051621
-1.8200000000000001,0.094514892775458242
-1.8187500000000001,0.095536856879902238
-1.8174999999999999,0.096558820984346233
-1.8162499999999999,0.096899475685827546
-1.8149999999999999,0.097921439790271542
-1.81375,0.10030602270064085
-1.8125,0.10473453381989811
-1.81125,0.10882239023767404
-1.8100000000000001,0.11256959195396865
-1.8087500000000001,0.1152948295658193
-1.8075000000000001,0.11699810307322595
-1.8062499999999999,0.11836072187915125
-1.8049999999999999,0.11870137658063257
-1.80375,0.1176794124761886
-1.8025,0.1142728654613753
-1.80125,0.10882239023767404
-1.8,0.10166864150656615
-1.7987500000000001,0.094514892775458242
-1.7975000000000001,0.089064417551757008
-1.7962499999999999,0.085317215835462396
-1.7949999999999999,0.083954597029537059
-1.79375,0.084635906432499713
-1.7925,0.08599852523842505
-1.79125,0.087361144044350358
-1.79,0.089064417551757008
-1.7887500000000001,0.091108345760644971
-1.7875000000000001,0.09247096456657028
-1.7862499999999999,0.092811619268051621
-1.7849999999999999,0.091449000462126284
-1.7837499999999999,0.089064417551757008
-1.7825,0.08599852523842505
-1.78125,0.082591978223611751
-1.78,0.079526085910279792
-1.7787500000000001,0.076800848298429175
-1.7775000000000001,0.07407561068657853
-1.7762500000000001,0.071350373074727913
-1.7749999999999999,0.068625135462877296
-1.7737499999999999,0.066240552552507992
-1.7725,0.063515314940657347
-1.77125,0.058746149119918767
-1.77,0.051592400388810855
-1.76875,0.041372759344371013
-1.7675000000000001,0.030471808896968489
-1.7662500000000001,0.020592822554009974
-1.7649999999999999,0.013439073822902076
-1.7637499999999999,0.0083292533006821406
-1.7625,0.0045820515843875281
-1.76125,-0.00018711423635106583
-1.76,-0.0059782441615336551
-1.75875,-0.01347264759412288
-1.7575000000000001,-0.023351633937081409
-1.7562500000000001,-0.034933893787446574
-1.7549999999999999,-0.048560081846699722
-1.7537499999999999,-0.063548888711878165
-1.7524999999999999,-0.078537695577056629
-1.75125,-0.092163883636309771
-1.75,-0.10272417938223095
-1.74875,-0.10885596400889486
-1.7475000000000001,-0.11124054691926416
-1.7462500000000001,-0.11055923751630151
-1.7450000000000001,-0.10851530930741354
-1.7437499999999999,-0.10613072639704424
-1.7424999999999999,-0.10374614348667494
-1.74125,-0.10272417938223095
-1.74,-0.10272417938223095
-1.73875,-0.10340548878519361
-1.7375,-0.10408679818815626
-1.7362500000000001,-0.10544941699408159
-1.7350000000000001,-0.10783399990445088
-1.7337499999999999,-0.11021858281482018
-1.7324999999999999,-0.11124054691926416
-1.73125,-0.11158120162074549
-1.73,-0.11192185632222681
-1.72875,-0.11362512982963346
-1.7275,-0.11566905803852143
-1.7262500000000001,-0.1177129862474094
-1.7250000000000001,-0.11907560505333473
-1.7237499999999999,-0.12077887856074136
-1.7224999999999999,-0.12316346147111067
-1.7212499999999999,-0.12622935378444261
-1.72,-0.12963590079925591
-1.71875,-0.13304244781406918
-1.7175,-0.13644899482888248
-1.7162500000000001,-0.13951488714221444
-1.7150000000000001,-0.14087750594813975
-1.7137500000000001,-0.14121816064962106
-1.7124999999999999,-0.14053685124665841
-1.7112499999999999,-0.14053685124665841
-1.71,-0.14121816064962106
-1.70875,-0.14360274355999036
-1.7075,-0.14666863587332232
-1.70625,-0.14905321878369163
-1.7050000000000001,-0.15007518288813562
-1.7037500000000001,-0.15007518288813562
-1.7024999999999999,-0.15041583758961694
-1.7012499999999999,-0.15041583758961694
-1.7,-0.15007518288813562
-1.69875,-0.14837190938072897
-1.6975,-0.14496536236591567
-1.69625,-0.14121816064962106
-1.6950000000000001,-0.13849292303777044
-1.6937500000000001,-0.13713030423184513
-1.6924999999999999,-0.13781161363480779
-1.6912499999999999,-0.14019619654517709
-1.6899999999999999,-0.14224012475406506
-1.68875,-0.14394339826147171
-1.6875,-0.14632798117184101
-1.68625,-0.14939387348517297
-1.6850000000000001,-0.1524597657985049
-1.6837500000000001,-0.15416303930591155
-1.6825000000000001,-0.15382238460443023
-1.6812499999999999,-0.15211911109702358
-1.6799999999999999,-0.14871256408221029
-1.67875,-0.14394339826147171
-1.6775,-0.1391742324407331
-1.67625,-0.13406441191851318
-1.675,-0.12861393669481191
-1.6737500000000001,-0.12282280676962934
-1.6725000000000001,-0.11805364094889073
-1.6712499999999999,-0.11362512982963346
-1.6699999999999999,-0.1091966187103762
-1.66875,-0.10579007169556291
-1.6675,-0.10374614348667494
-1.66625,-0.10442745288963759
-1.665,-0.10613072639704424
-1.6637500000000001,-0.1081746546059322
-1.6625000000000001,-0.10987792811333885
-1.6612499999999999,-0.11226251102370816
-1.6599999999999999,-0.1153284033370401
-1.6587499999999999,-0.11839429565037206
-1.6575,-0.12146018796370402
-1.65625,-0.1248667349785173
-1.655,-0.12759197259036792
-1.6537500000000001,-0.12895459139629326
-1.6525000000000001,-0.13031721020221856
-1.6512500000000001,-0.13202048370962521
-1.6499999999999999,-0.13338310251555052
-1.6487499999999999,-0.13406441191851318
-1.6475,-0.13236113841110653
-1.64625,-0.1282732819933306
-1.645,-0.12282280676962934
-1.64375,-0.11669102214296542
-1.6425000000000001,-0.10953727341185752
-1.6412500000000001,-0.10272417938223095
-1.6399999999999999,-0.096933049457048365
-1.6387499999999999,-0.091823228934828444
-1.6375,-0.08773537251705249
-1.63625,-0.083988170800757878
-1.635,-0.081603587890388588
-1.63375,-0.082284897293351242
-1.6325000000000001,-0.087054063114089836
-1.6312500000000001,-0.092504538337791098
-1.6299999999999999,-0.096933049457048365
-1.6287499999999999,-0.098976977665936341
-1.6274999999999999,-0.099658287068898996
-1.62625,-0.099998941770380323
-1.625,-0.10033959647186165
-1.62375,-0.10033959647186165
-1.6225000000000001,-0.099658287068898996
-1.6212500000000001,-0.098295668262973687
-1.6200000000000001,-0.097273704158529692
-1.6187499999999999,-0.096592394755567038
-1.6174999999999999,-0.095570430651123056
-1.61625,-0.093867157143716407
-1.615,-0.091141919531865789
-1.61375,-0.087054063114089836
-1.6125,-0.081944242591869915
-1.6112500000000001,-0.077856386174093975
-1.6100000000000001,-0.075471803263724671
-1.6087499999999999,-0.075812457965205998
-1.6074999999999999,-0.077856386174093975
-1.60625,-0.080581623785944606
-1.605,-0.082625551994832569
-1.60375,-0.082966206696313896
-1.6025,-0.082284897293351242
-1.6012500000000001,-0.081603587890388588
-1.6000000000000001,-0.080581623785944606
-1.5987499999999999,-0.079900314382981938
-1.5974999999999999,-0.079559659681500611
-1.5962499999999999,-0.078537695577056629
-1.595,-0.07683442206964998
-1.59375,-0.075812457965205998
-1.5925,-0.075131148562243344
-1.5912500000000001,-0.075812457965205998
-1.5900000000000001,-0.077515731472612648
-1.5887500000000001,-0.080581623785944606
-1.5874999999999999,-0.083306861397795223
-1.5862499999999999,-0.085010134905201873
-1.585,-0.085691444308164527
-1.58375,-0.086032099009645854
-1.5825,-0.086032099009645854
-1.58125,-0.085010134905201873
-1.5800000000000001,-0.082966206696313896
-1.5787500000000001,-0.079900314382981938
-1.5774999999999999,-0.077175076771131307
-1.5762499999999999,-0.075812457965205998
-1.575,-0.076493767368168653
-1.57375,-0.079219004980019284
-1.5725,-0.08364751609927655
-1.57125,-0.088416681920015158
-1.5700000000000001,-0.093185847740753752
-1.5687500000000001,-0.097273704158529692
-1.5674999999999999,-0.1010209058748243
-1.5662499999999999,-0.10408679818815626
-1.5649999999999999,-0.10579007169556291
-1.56375,-0.10613072639704424
-1.5625,-0.10544941699408159
-1.56125,-0.10238352468074963
-1.5600000000000001,-0.098295668262973687
-1.5587500000000001,-0.092504538337791098
-1.5575000000000001,-0.085691444308164527
-1.5562499999999999,-0.078197040875575302
-1.5549999999999999,-0.070702637442986077
-1.55375,-0.062186269905952857
-1.5525,-0.053329247667438316
-1.55125,-0.04685680833929308
-1.55,-0.043450261324479794
-1.5487500000000001,-0.04310960662299846
-1.5475000000000001,-0.045153534831886437
-1.5462499999999999,-0.047538117742255734
-1.5449999999999999,-0.050944664757069019
-1.54375,-0.054691866473363632
-1.5425,-0.057417104085214263
-1.54125,-0.059120377592620905
-1.54,-0.059461032294102233
-1.5387500000000001,-0.05775775878669559
-1.5375000000000001,-0.055373175876326286
-1.5362499999999999,-0.053329247667438316
-1.5349999999999999,-0.052988592965956989
-1.5337499999999999,-0.05571383057780762
-1.5325,-0.05980168699558356
-1.53125,-0.065252162219284815
-1.53,-0.071383946845948731
-1.5287500000000001,-0.077856386174093975
-1.5275000000000001,-0.085010134905201873
-1.5262500000000001,-0.090460610128903121
-1.5249999999999999,-0.094207811845197734
-1.5237499999999999,-0.09625174005408571
-1.5225,-0.095229775949641729
-1.52125,-0.091482574233347103
-1.52,-0.086032099009645854
-1.51875,-0.079900314382981938
-1.5175000000000001,-0.075131148562243344
-1.5162500000000001,-0.072405910950392713
-1.5149999999999999,-0.070702637442986077
-1.5137499999999999,-0.070702637442986077
-1.5125,-0.071724601547430059
-1.51125,-0.073087220353355367
-1.51,-0.07444983915928069
-1.50875,-0.075812457965205998
-1.5075000000000001,-0.077515731472612648
-1.5062500000000001,-0.078537695577056629
-1.5049999999999999,-0.079900314382981938
-1.5037499999999999,-0.080240969084463265
-1.5024999999999999,-0.079219004980019284
-1.50125,-0.07683442206964998
-1.5,-0.073768529756318035
-1.49875,-0.070021328040023423
-1.4975000000000001,-0.064570852816322161
-1.4962500000000001,-0.058098413488176917
-1.4950000000000001,-0.051966628861513001
-1.4937499999999999,-0.047878772443737061
-1.4924999999999999,-0.045494189533367764
-1.49125,-0.044131570727442448
-1.49,-0.042768951921517133
-1.48875,-0.042087642518554479
-1.4875,-0.04310960662299846
-1.4862500000000001,-0.045834844234849091
-1.4850000000000001,-0.050263355354106358
-1.4837499999999999,-0.056395139980770274
-1.4824999999999999,-0.062186269905952857
-1.48125,-0.066614781025210124
-1.48,-0.069680673338542082
-1.47875,-0.071043292144467404
-1.4775,-0.070702637442986077
-1.4762500000000001,-0.0686587092340981
-1.4750000000000001,-0.065592816920766142
-1.4737499999999999,-0.062526924607434198
-1.4724999999999999,-0.05980168699558356
-1.4712499999999999,-0.058098413488176917
-1.47,-0.056735794682251602
-1.46875,-0.055373175876326286
-1.4675,-0.054351211771882305
-1.4662500000000001,-0.054010557070400977
-1.4650000000000001,-0.053669902368919643
-1.4637500000000001,-0.052988592965956989
-1.4624999999999999,-0.052988592965956989
-1.4612499999999999,-0.052307283562994335
-1.46,-0.050944664757069019
-1.45875,-0.048219427145218388
-1.4575,-0.046175498936330418
-1.45625,-0.044812880130405103
-1.4550000000000001,-0.045494189533367764
-1.4537500000000001,-0.047538117742255734
-1.4524999999999999,-0.050604010055587692
-1.4512499999999999,-0.052988592965956989
-1.45,-0.053669902368919643
-1.44875,-0.053329247667438316
-1.4475,-0.052307283562994335
-1.44625,-0.051966628861513001
-1.4450000000000001,-0.051966628861513001
-1.4437500000000001,-0.051285319458550346
-1.4424999999999999,-0.050263355354106358
-1.4412499999999999,-0.049241391249662377
-1.4399999999999999,-0.048900736548181049
-1.43875,-0.047878772443737061
-1.4375,-0.045494189533367764
-1.43625,-0.041746987817073151
-1.4350000000000001,-0.036977821996334551
-1.4337500000000001,-0.033911929683002592
-1.4325000000000001,-0.032889965578558611
-1.4312499999999999,-0.034593239085965247
-1.4299999999999999,-0.038340440802259866
-1.42875,-0.042768951921517133
-1.4275,-0.04685680833929308
-1.42625,-0.050944664757069019
-1.425,-0.054351211771882305
-1.4237500000000001,-0.057076449383732929
-1.4225000000000001,-0.05980168699558356
-1.4212499999999999,-0.06184561520447153
-1.4199999999999999,-0.063208234010396852
-1.41875,-0.062526924607434198
-1.4175,-0.060482996398546214
-1.41625,-0.056735794682251602
-1.415,-0.052307283562994335
-1.4137500000000001,-0.048560081846699722
-1.4125000000000001,-0.046516153637811745
-1.4112499999999999,-0.045834844234849091
-1.4099999999999999,-0.045494189533367764
-1.4087499999999999,-0.045153534831886437
-1.4075,-0.044131570727442448
-1.40625,-0.043790916025961121
-1.405,-0.043790916025961121
-1.4037500000000001,-0.044131570727442448
-1.4025000000000001,-0.044812880130405103
-1.4012500000000001,-0.045494189533367764
-1.3999999999999999,-0.046516153637811745
-1.3987499999999999,-0.047197463040774407
-1.3975,-0.047197463040774407
-1.39625,-0.046516153637811745
-1.395,-0.044472225428923776
-1.39375,-0.042768951921517133
-1.3925000000000001,-0.04106567841411049
-1.3912500000000001,-0.039703059608185175
-1.3899999999999999,-0.038340440802259866
-1.3887499999999999,-0.037318476697815878
-1.3875,-0.036637167294853223
-1.38625,-0.037659131399297205
-1.385,-0.040384369011147836
-1.38375,-0.043450261324479794
-1.3825000000000001,-0.045834844234849091
-1.3812500000000001,-0.048219427145218388
-1.3799999999999999,-0.049922700652625031
-1.3787499999999999,-0.050604010055587692
-1.3774999999999999,-0.049922700652625031
-1.37625,-0.048560081846699722
-1.375,-0.047878772443737061
-1.37375,-0.047197463040774407
-1.3725000000000001,-0.045834844234849091
-1.3712500000000001,-0.044131570727442448
-1.3700000000000001,-0.042768951921517133
-1.3687499999999999,-0.042768951921517133
-1.3674999999999999,-0.04310960662299846
-1.36625,-0.04310960662299846
-1.365,-0.04310960662299846
-1.36375,-0.042087642518554479
-1.3625,-0.03902175020522252
-1.3612500000000001,-0.03425258438448392
-1.3600000000000001,-0.030505382668189307
-1.3587499999999999,-0.027098835653376022
-1.3574999999999999,-0.024373598041525391
-1.35625,-0.023010979235600082
-1.355,-0.022670324534118755
-1.35375,-0.023010979235600082
-1.3525,-0.023692288638562736
-1.3512500000000001,-0.024714252743006718
-1.3500000000000001,-0.026758180951894694
-1.3487499999999999,-0.030505382668189307
-1.3474999999999999,-0.033911929683002592
-1.3462499999999999,-0.035955857891890569
-1.345,-0.034933893787446574
-1.34375,-0.032208656175595957
-1.3425,-0.028120799757820003
-1.3412500000000001,-0.023351633937081409
-1.3400000000000001,-0.018923122817824142
-1.3387500000000001,-0.015516575803010857
-1.3374999999999999,-0.012450683489678899
-1.3362499999999999,-0.010406755280790922
-1.335,-0.0093847911763469405
-1.33375,-0.008362827071902959
-1.3325,-0.0076815176689403047
-1.33125,-0.0080221723704216319
-1.3300000000000001,-0.0093847911763469405
-1.3287500000000001,-0.010406755280790922
-1.3274999999999999,-0.0093847911763469405
-1.3262499999999999,-0.0073408629674589637
-1.325,-0.0042749706541270194
-1.32375,0.00049419516661158847
-1.3225,0.0062853250917941639
-1.32125,0.01241710971845808
-1.3200000000000001,0.017186275539196688
-1.3187500000000001,0.020252167852528632
-1.3174999999999999,0.020933477255491301
-1.3162499999999999,0.019911513151047305
-1.3149999999999999,0.017526930240678015
-1.31375,0.01412038322586473
-1.3125,0.0096918721066074492
-1.31125,0.0045820515843875281
-1.3100000000000001,-0.00018711423635106583
-1.3087500000000001,-0.0039343159526456783
-1.3075000000000001,-0.0052969347585710008
-1.3062499999999999,-0.0042749706541270194
-1.3049999999999999,-0.0022310424452390426
-1.30375,-0.00018711423635106583
-1.3025,0.00083484986809291561
-1.30125,0.00083484986809291561
-1.3,0.0011755045695742428
-1.2987500000000001,0.0025381233754995514
-1.2975000000000001,0.0049227062858688553
-1.2962499999999999,0.0079885985992008135
-1.2949999999999999,0.012076455016976753
-1.29375,0.017186275539196688
-1.2925,0.021274131956972628
-1.29125,0.023318060165860591
-1.29,0.023318060165860591
-1.2887500000000001,0.023658714867341918
-1.2875000000000001,0.024680678971785913
-1.2862499999999999,0.025361988374748567
-1.2849999999999999,0.024680678971785913
-1.2837499999999999,0.022636750762897936
-1.2825,0.019570858449565978
-1.28125,0.016845620837715347
-1.28,0.014461037927346057
-1.2787500000000001,0.013098419121420735
-1.2775000000000001,0.012757764419939407
-1.2762500000000001,0.011735800315495426
-1.2749999999999999,0.0090105627036447949
-1.2737499999999999,0.0056040156888315096
-1.2725,0.0015161592710555699
-1.27125,-0.0029123518482016969
-1.27,-0.0063188988630149823
-1.26875,-0.0097254458778282676
-1.2675000000000001,-0.012110028788197572
-1.2662500000000001,-0.014153956997085534
-1.2649999999999999,-0.014153956997085534
-1.2637499999999999,-0.012450683489678899
-1.2625,-0.010406755280790922
-1.26125,-0.0097254458778282676
-1.26,-0.0097254458778282676
-1.25875,-0.0093847911763469405
-1.2575000000000001,-0.0087034817733842862
-1.2562500000000001,-0.0080221723704216319
-1.2549999999999999,-0.0080221723704216319
-1.2537499999999999,-0.0097254458778282676
-1.2524999999999999,-0.01347264759412288
-1.25125,-0.018582468116342815
-1.25,-0.022670324534118755
-1.24875,-0.025054907444488059
-1.2475000000000001,-0.025054907444488059
-1.2462500000000001,-0.024373598041525391
-1.2450000000000001,-0.024373598041525391
-1.2437499999999999,-0.025054907444488059
-1.2424999999999999,-0.025054907444488059
-1.24125,-0.024714252743006718
-1.24,-0.025395562145969386
-1.23875,-0.027098835653376022
-1.2375,-0.02846145445930133
-1.2362500000000001,-0.027780145056338676
-1.2350000000000001,-0.024714252743006718
-1.2337499999999999,-0.020626396325230778
-1.2324999999999999,-0.015516575803010857
-1.23125,-0.011769374086716244
-1.23,-0.010066100579309595
-1.22875,-0.0097254458778282676
-1.2275,-0.010747409982272249
-1.2262500000000001,-0.012791338191160226
-1.2250000000000001,-0.015516575803010857
-1.2237499999999999,-0.018241813414861488
-1.2224999999999999,-0.021648360429674773
-1.2212499999999999,-0.026758180951894694
-1.22,-0.032889965578558611
-1.21875,-0.036977821996334551
-1.2175,-0.039362404906703848
-1.2162500000000001,-0.039703059608185175
-1.2150000000000001,-0.038681095503741193
-1.2137500000000001,-0.036637167294853223
-1.2124999999999999,-0.035274548488927901
-1.2112499999999999,-0.03425258438448392
-1.21,-0.033571274981521265
-1.20875,-0.032889965578558611
-1.2075,-0.031868001474114616
-1.20625,-0.030846037369670634
-1.2050000000000001,-0.029142763862263998
-1.2037500000000001,-0.026417526250413367
-1.2024999999999999,-0.023351633937081409
-1.2012499999999999,-0.021307705728193432
-1.2,-0.021648360429674773
-1.19875,-0.024032943340044063
-1.1975,-0.027439490354857349
-1.19625,-0.030505382668189307
-1.1950000000000001,-0.033911929683002592
-1.1937500000000001,-0.036637167294853223
-1.1924999999999999,-0.038681095503741193
-1.1912499999999999,-0.038681095503741193
-1.1899999999999999,-0.035955857891890569
-1.18875,-0.032208656175595957
-1.1875,-0.026417526250413367
-1.18625,-0.019263777519305469
-1.1850000000000001,-0.011769374086716244
-1.1837500000000001,-0.0029123518482016969
-1.1825000000000001,0.0066259797932755049
-1.1812499999999999,0.015483002031790039
-1.1799999999999999,0.023658714867341918
-1.17875,0.031153118299931143
-1.1775,0.0376255576280764
-1.17625,0.043416687553258976
-1.175,0.047504543971034929
-1.1737500000000001,0.049207817478441551
-1.1725000000000001,0.047845198672516243
-1.1712499999999999,0.04409799695622163
-1.1699999999999999,0.038306867031039055
-1.16875,0.031834427702893797
-1.1675,0.025361988374748567
-1.16625,0.019230203748084651
-1.165,0.013439073822902076
-1.1637500000000001,0.0090105627036447949
-1.1625000000000001,0.0056040156888315096
-1.1612499999999999,0.0045820515843875281
-1.1599999999999999,0.0066259797932755049
-1.1587499999999999,0.010713836211051445
-1.1575,0.016164311434752693
-1.15625,0.022296096061416609
-1.155,0.028087225986599185
-1.1537500000000001,0.032515737105856451
-1.1525000000000001,0.03558162941918841
-1.1512500000000001,0.038306867031039055
-1.1499999999999999,0.042054068747333667
-1.1487499999999999,0.048185853373997584
-1.1475,0.054998947403624154
-1.14625,0.061130732030288071
-1.145,0.064877933746582683
-1.14375,0.064196624343620029
-1.1425000000000001,0.058746149119918767
